 ,Skeleton ID,Branch length,V1 x,V1 y,V1 z,V2 x,V2 y,V2 z,Euclidean distance,running average length,average intensity (inner 3rd),average intensity
1,2,0.201,0.263,13.632,0,0.421,13.632,0,0.158,0.164,255,255
2,3,0.614,0.316,28.263,0,0.684,28.000,0,0.453,0.535,255,255
3,4,0.180,0.421,27.000,0,0.474,27.158,0,0.166,0.189,255,255
4,5,0.053,0.421,29.000,0,0.474,29.000,0,0.053,0.053,255,255
5,6,2.109,2.842,9.684,0,3.158,7.737,0,1.973,1.946,255,255
6,6,2.077,5.263,7.842,0,3.579,7.000,0,1.883,1.971,255,255
7,6,1.381,1.842,7.789,0,3.158,7.737,0,1.317,1.198,255,255
8,6,1.363,0.474,8.053,0,1.579,7.684,0,1.165,1.276,255,255
9,6,1.283,1.842,9.000,0,2.842,9.684,0,1.212,1.227,255,255
10,6,1.078,2.526,10.632,0,2.842,9.684,0,0.999,1.020,255,255
11,6,0.973,3.158,7.737,0,3.579,7.000,0,0.849,0.816,255,255
12,6,0.877,1.789,6.895,0,1.579,7.684,0,0.817,0.871,255,255
13,6,0.859,3.368,10.211,0,3.895,10.789,0,0.782,0.647,255,255
14,6,0.793,2.842,9.684,0,3.368,10.211,0,0.744,0.575,255,255
15,6,0.701,4.263,6.053,0,3.789,6.526,0,0.670,0.673,255,255
16,6,0.635,3.526,6.000,0,3.789,6.526,0,0.588,0.568,255,255
17,6,0.604,3.579,7.000,0,3.789,6.526,0,0.518,0.492,255,255
18,6,0.530,3.789,9.947,0,3.368,10.211,0,0.497,0.490,255,255
19,6,0.499,2.158,8.158,0,1.842,7.789,0,0.485,0.457,255,255
20,6,0.447,4.211,10.474,0,3.895,10.789,0,0.447,0.372,255,255
21,6,0.434,4.053,11.158,0,3.895,10.789,0,0.401,0.404,255,255
22,6,0.307,1.579,7.684,0,1.842,7.789,0,0.283,0.158,255,255
23,7,0.359,0.526,5.474,0,0.632,5.789,0,0.333,0.321,255,255
24,8,0.403,1.105,12.000,0,0.895,11.684,0,0.380,0.376,255,255
25,8,0.307,1.000,11.421,0,0.895,11.684,0,0.283,0.287,255,255
26,8,0.211,0.684,11.684,0,0.895,11.684,0,0.211,0.211,255,255
27,9,2.598,0.895,17.632,0,2.316,15.684,0,2.411,2.469,255,255
28,10,0.053,1.000,13.789,0,1.053,13.789,0,0.053,0.053,255,255
29,12,0.180,1.263,12.579,0,1.316,12.737,0,0.166,0.167,255,255
30,14,0.201,1.474,11.632,0,1.579,11.789,0,0.190,0.197,255,255
31,15,0.780,1.684,37.368,0,2.421,37.474,0,0.744,0.781,255,255
32,16,0.298,1.789,8.579,0,2.000,8.368,0,0.298,0.298,255,255
33,17,0.561,2.526,50.421,0,2.105,50.158,0,0.497,0.509,255,255
34,17,0.526,2.158,49.684,0,2.105,50.158,0,0.477,0.517,255,255
35,17,0.391,2.368,49.895,0,2.105,50.158,0,0.372,0.364,255,255
36,17,0.359,1.789,50.263,0,2.105,50.158,0,0.333,0.358,255,255
37,18,0.074,1.947,1.526,0,2.000,1.579,0,0.074,0.074,255,255
38,19,3.354,8.737,3.737,0,5.579,4.211,0,3.193,3.250,255,255
39,19,2.871,5.579,4.211,0,6.316,6.684,0,2.581,2.475,255,255
40,19,2.701,3.053,4.316,0,5.579,4.211,0,2.529,2.434,255,255
41,19,1.445,6.474,2.526,0,5.474,3.526,0,1.414,1.417,255,255
42,19,1.187,2.211,3.421,0,2.842,4.316,0,1.095,1.125,255,255
43,19,1.178,5.474,7.421,0,6.316,6.684,0,1.119,1.128,255,255
44,19,1.165,3.579,5.263,0,3.053,4.316,0,1.084,1.107,255,255
45,19,1.156,4.842,2.632,0,5.474,3.526,0,1.095,1.001,255,255
46,19,1.091,3.105,5.421,0,2.632,4.526,0,1.012,1.052,255,255
47,19,1.047,5.211,1.737,0,4.842,2.632,0,0.968,0.897,255,255
48,19,0.880,4.158,2.158,0,4.842,2.632,0,0.832,0.833,255,255
49,19,0.771,5.474,3.526,0,5.579,4.211,0,0.692,0.612,255,255
50,19,0.697,2.000,4.684,0,2.632,4.526,0,0.651,0.679,255,255
51,19,0.412,6.684,6.684,0,6.316,6.684,0,0.368,0.403,255,255
52,19,0.329,2.632,4.526,0,2.842,4.316,0,0.298,0.111,255,255
53,19,0.211,2.842,4.316,0,3.053,4.316,0,0.211,0.158,255,255
54,20,0.053,2.105,27.000,0,2.105,27.053,0,0.053,0.053,255,255
55,21,0.127,2.158,12.737,0,2.263,12.789,0,0.118,0.133,255,255
56,22,1.153,3.211,18.000,0,3.053,19.000,0,1.012,1.096,255,255
57,22,0.859,3.421,19.895,0,2.895,19.316,0,0.782,0.801,255,255
58,22,0.666,2.632,20.211,0,2.421,19.632,0,0.616,0.636,255,255
59,22,0.604,2.421,19.632,0,2.895,19.316,0,0.569,0.459,255,255
60,22,0.381,2.895,19.316,0,3.053,19.000,0,0.353,0.220,255,255
61,22,0.350,3.316,18.789,0,3.053,19.000,0,0.337,0.350,255,255
62,22,0.285,2.158,19.684,0,2.421,19.632,0,0.268,0.275,255,255
63,23,1.534,2.895,37.474,0,3.105,36.579,0,0.919,1.433,255,255
64,23,0.741,2.474,36.842,0,3.105,36.579,0,0.684,0.683,255,255
65,23,0.381,3.053,36.263,0,3.105,36.579,0,0.320,0.357,255,255
66,24,0.201,2.526,11.632,0,2.632,11.789,0,0.190,0.175,255,255
67,25,0.074,2.526,38.579,0,2.579,38.632,0,0.074,0.074,255,255
68,26,0.127,2.632,27.789,0,2.737,27.737,0,0.118,0.111,255,255
69,27,0.127,2.684,50.421,0,2.789,50.368,0,0.118,0.133,255,255
70,29,0.127,2.737,20.579,0,2.842,20.632,0,0.118,0.133,255,255
71,30,0.759,3.105,11.789,0,3.842,11.842,0,0.739,0.742,255,255
72,31,1.639,3.947,18.053,0,4.526,17.316,0,0.937,1.489,255,255
73,31,1.078,4.368,16.053,0,4.053,17.000,0,0.999,1.032,255,255
74,31,0.977,3.474,17.737,0,4.053,17.000,0,0.937,0.766,255,255
75,31,0.635,4.053,17.000,0,4.526,17.316,0,0.569,0.416,255,255
76,31,0.574,4.947,16.947,0,4.526,17.316,0,0.559,0.472,255,255
77,31,0.285,3.211,17.684,0,3.474,17.737,0,0.268,0.269,255,255
78,31,0.254,3.579,17.947,0,3.474,17.737,0,0.235,0.241,255,255
79,32,0.180,3.421,21.526,0,3.579,21.474,0,0.166,0.189,255,255
80,32,0.149,3.632,21.421,0,3.579,21.474,0,0.074,0.000,0,0
81,32,0.127,3.684,21.526,0,3.579,21.474,0,0.118,0.053,255,255
82,33,0.434,3.526,51.105,0,3.684,51.474,0,0.401,0.438,255,255
83,34,0.254,3.632,49.632,0,3.789,49.789,0,0.223,0.217,255,255
84,35,1.131,4.789,44.474,0,3.789,44.263,0,1.022,1.136,255,255
85,35,0.232,3.842,44.474,0,3.789,44.263,0,0.217,0.232,255,255
86,35,0.053,3.737,44.263,0,3.789,44.263,0,0.053,0.053,255,255
87,36,0.053,3.947,46.316,0,4.000,46.316,0,0.053,0.053,255,255
88,37,0.053,4.158,21.211,0,4.211,21.211,0,0.053,0.053,255,255
89,38,1.801,5.368,45.526,0,6.158,44.684,0,1.154,1.692,255,255
90,38,1.688,5.737,48.105,0,5.895,46.632,0,1.482,1.567,255,255
91,38,1.538,5.947,46.316,0,6.789,45.158,0,1.432,1.425,255,255
92,38,1.301,7.158,50.579,0,6.632,49.526,0,1.177,1.274,255,255
93,38,1.258,4.316,49.947,0,5.421,49.579,0,1.165,1.180,255,255
94,38,1.144,7.632,45.737,0,6.789,45.158,0,1.022,1.072,255,255
95,38,1.140,5.737,48.105,0,5.842,49.158,0,1.058,0.957,255,255
96,38,1.078,4.789,48.000,0,5.737,48.105,0,0.953,0.998,255,255
97,38,0.942,5.842,49.158,0,6.632,49.526,0,0.871,0.749,255,255
98,38,0.732,5.737,45.368,0,6.263,44.947,0,0.674,0.655,255,255
99,38,0.657,7.158,49.842,0,6.632,49.526,0,0.614,0.629,255,255
100,38,0.657,5.421,49.579,0,5.842,49.158,0,0.595,0.464,255,255
101,38,0.644,6.263,44.947,0,6.789,45.158,0,0.567,0.467,255,255
102,38,0.499,5.579,46.000,0,5.947,46.316,0,0.485,0.480,255,255
103,38,0.486,6.105,44.263,0,6.158,44.684,0,0.424,0.475,255,255
104,38,0.412,5.526,46.737,0,5.895,46.632,0,0.383,0.382,255,255
105,38,0.381,6.158,44.684,0,6.263,44.947,0,0.283,0.235,255,255
106,38,0.359,5.526,49.895,0,5.421,49.579,0,0.333,0.349,255,255
107,38,0.338,5.895,46.632,0,5.947,46.316,0,0.320,0.158,255,255
108,39,0.053,4.421,45.632,0,4.421,45.684,0,0.053,0.053,255,255
109,40,0.381,4.474,29.000,0,4.526,28.684,0,0.320,0.321,255,255
110,41,1.674,4.474,52.579,0,5.684,51.684,0,1.505,1.600,255,255
111,41,0.846,6.421,51.526,0,5.684,51.684,0,0.754,0.823,255,255
112,41,0.232,5.737,51.474,0,5.684,51.684,0,0.217,0.243,255,255
113,42,0.074,4.526,21.211,0,4.579,21.263,0,0.074,0.074,255,255
114,43,0.053,4.526,45.842,0,4.579,45.842,0,0.053,0.053,255,255
115,44,0.053,4.579,11.158,0,4.632,11.158,0,0.053,0.053,255,255
116,45,0.201,4.579,12.105,0,4.737,12.211,0,0.190,0.175,255,255
117,48,0.276,4.789,43.474,0,4.947,43.263,0,0.263,0.262,255,255
118,50,1.459,5.000,38.053,0,5.895,38.368,0,0.949,1.320,255,255
119,50,1.131,6.316,38.474,0,6.684,39.421,0,1.016,0.893,255,255
120,50,0.719,7.316,39.474,0,7.526,40.105,0,0.666,0.565,255,255
121,50,0.657,7.684,39.105,0,7.316,39.474,0,0.521,0.576,255,255
122,50,0.653,6.684,39.421,0,7.316,39.474,0,0.634,0.560,255,255
123,50,0.508,5.895,38.368,0,6.316,38.474,0,0.434,0.351,255,255
124,50,0.495,6.737,39.895,0,6.684,39.421,0,0.477,0.486,255,255
125,50,0.403,7.842,40.316,0,7.526,40.105,0,0.380,0.376,255,255
126,50,0.276,5.684,38.211,0,5.895,38.368,0,0.263,0.241,255,255
127,50,0.254,7.421,39.263,0,7.316,39.474,0,0.235,0.263,255,255
128,50,0.232,6.526,38.526,0,6.316,38.474,0,0.217,0.232,255,255
129,50,0.180,7.474,40.263,0,7.526,40.105,0,0.166,0.180,255,255
130,51,0.359,5.000,40.895,0,5.158,40.632,0,0.307,0.326,255,255
131,54,0.149,5.263,14.263,0,5.368,14.368,0,0.149,0.149,255,255
132,55,0.053,5.263,22.211,0,5.316,22.211,0,0.053,0.053,255,255
133,56,0.548,5.316,24.526,0,5.263,24.000,0,0.529,0.539,255,255
134,56,0.381,5.579,24.158,0,5.263,24.000,0,0.353,0.343,255,255
135,56,0.105,5.263,23.895,0,5.263,24.000,0,0.105,0.105,255,255
136,58,1.389,7.474,10.789,0,8.474,10.105,0,1.212,1.195,255,255
137,58,1.342,9.737,9.895,0,9.000,10.684,0,1.080,1.270,255,255
138,58,1.170,8.421,12.842,0,8.632,13.895,0,1.073,0.975,255,255
139,58,1.165,7.000,11.421,0,7.684,12.211,0,1.045,0.987,255,255
140,58,1.122,7.684,12.211,0,8.421,12.842,0,0.970,0.934,255,255
141,58,1.051,5.316,11.895,0,5.947,11.105,0,1.011,1.004,255,255
142,58,0.973,6.158,11.105,0,7.000,11.421,0,0.899,0.802,255,255
143,58,0.850,8.316,11.684,0,7.684,12.211,0,0.822,0.807,255,255
144,58,0.828,7.000,11.421,0,7.474,10.789,0,0.789,0.694,255,255
145,58,0.753,7.947,9.632,0,8.474,10.105,0,0.708,0.681,255,255
146,58,0.701,9.316,9.684,0,8.895,10.211,0,0.674,0.645,255,255
147,58,0.657,8.684,11.211,0,9.000,10.684,0,0.614,0.590,255,255
148,58,0.623,9.000,12.737,0,8.421,12.842,0,0.588,0.615,255,255
149,58,0.561,5.474,10.895,0,5.947,11.105,0,0.518,0.457,255,255
150,58,0.552,8.316,14.316,0,8.632,13.895,0,0.526,0.520,255,255
151,58,0.546,8.895,10.211,0,9.000,10.684,0,0.485,0.429,255,255
152,58,0.486,8.789,14.211,0,8.632,13.895,0,0.353,0.458,255,255
153,58,0.465,8.474,10.105,0,8.895,10.211,0,0.434,0.322,255,255
154,58,0.456,9.316,10.947,0,9.000,10.684,0,0.411,0.413,255,255
155,58,0.381,8.947,13.737,0,8.632,13.895,0,0.353,0.364,255,255
156,58,0.254,6.263,10.895,0,6.158,11.105,0,0.235,0.263,255,255
157,58,0.211,5.947,11.105,0,6.158,11.105,0,0.211,0.158,255,255
158,58,0.180,7.421,10.632,0,7.474,10.789,0,0.166,0.167,255,255
159,59,0.338,5.421,34.526,0,5.737,34.474,0,0.320,0.349,255,255
160,60,0.149,5.421,50.789,0,5.526,50.684,0,0.149,0.149,255,255
161,61,0.074,5.474,23.421,0,5.526,23.474,0,0.074,0.074,255,255
162,62,0.053,5.474,28.684,0,5.526,28.684,0,0.053,0.053,255,255
163,63,0.232,5.526,14.842,0,5.579,14.632,0,0.217,0.241,255,255
164,63,0.127,5.526,14.526,0,5.579,14.632,0,0.118,0.111,255,255
165,63,0.127,5.684,14.579,0,5.579,14.632,0,0.118,0.127,255,255
166,66,0.127,5.842,18.526,0,5.895,18.421,0,0.118,0.111,255,255
167,67,0.750,6.053,8.947,0,6.737,8.789,0,0.702,0.748,255,255
168,67,0.719,6.579,9.632,0,6.789,9.000,0,0.666,0.655,255,255
169,67,0.679,7.579,9.526,0,7.158,9.053,0,0.634,0.602,255,255
170,67,0.583,7.000,8.316,0,6.737,8.789,0,0.542,0.566,255,255
171,67,0.539,7.632,8.895,0,7.158,9.053,0,0.499,0.427,255,255
172,67,0.390,6.789,9.000,0,7.158,9.053,0,0.372,0.189,255,255
173,67,0.307,6.737,8.789,0,6.789,9.000,0,0.217,0.180,255,255
174,69,0.285,6.316,22.842,0,6.368,23.105,0,0.268,0.275,255,255
175,70,0.053,6.579,23.789,0,6.632,23.789,0,0.053,0.053,255,255
176,71,0.074,6.684,37.105,0,6.737,37.158,0,0.074,0.074,255,255
177,72,0.880,6.737,1.000,0,6.789,1.684,0,0.686,0.824,255,255
178,72,0.517,7.263,1.684,0,6.789,1.684,0,0.474,0.529,255,255
179,72,0.180,6.737,1.842,0,6.789,1.684,0,0.166,0.180,255,255
180,73,1.007,6.789,23.684,0,7.316,24.474,0,0.949,1.000,255,255
181,73,0.960,7.368,25.368,0,7.316,24.474,0,0.896,0.914,255,255
182,73,0.359,7.632,24.368,0,7.316,24.474,0,0.333,0.357,255,255
183,74,2.104,7.842,26.895,0,8.263,28.737,0,1.890,1.841,255,255
184,74,1.432,7.053,28.368,0,8.158,29.158,0,1.358,1.252,255,255
185,74,1.420,7.684,31.895,0,8.316,30.737,0,1.319,1.200,255,255
186,74,1.087,8.211,29.737,0,8.316,30.737,0,1.006,0.890,255,255
187,74,1.007,9.053,27.842,0,8.526,28.632,0,0.949,0.934,255,255
188,74,0.998,7.211,28.947,0,7.947,29.579,0,0.970,0.944,255,255
189,74,0.960,9.105,29.684,0,8.211,29.737,0,0.896,0.961,255,255
190,74,0.868,9.263,28.947,0,8.526,28.632,0,0.802,0.800,255,255
191,74,0.815,9.000,30.947,0,8.316,30.737,0,0.716,0.743,255,255
192,74,0.604,6.789,33.211,0,7.105,32.737,0,0.569,0.542,255,255
193,74,0.583,7.316,32.263,0,7.684,31.895,0,0.521,0.426,255,255
194,74,0.561,7.105,32.737,0,7.316,32.263,0,0.518,0.390,255,255
195,74,0.517,7.158,33.158,0,7.105,32.737,0,0.424,0.487,255,255
196,74,0.477,7.684,32.526,0,7.316,32.263,0,0.453,0.435,255,255
197,74,0.477,8.368,27.105,0,8.000,26.842,0,0.453,0.435,255,255
198,74,0.465,8.158,29.158,0,8.263,28.737,0,0.434,0.381,255,255
199,74,0.456,7.684,31.895,0,8.053,32.105,0,0.424,0.271,255,255
200,74,0.443,8.105,29.579,0,8.158,29.158,0,0.424,0.263,255,255
201,74,0.381,8.368,31.947,0,8.053,32.105,0,0.353,0.295,255,255
202,74,0.329,7.737,29.789,0,7.947,29.579,0,0.298,0.293,255,255
203,74,0.329,7.895,32.368,0,8.053,32.105,0,0.307,0.332,255,255
204,74,0.307,8.263,28.737,0,8.526,28.632,0,0.283,0.167,255,255
205,74,0.201,7.947,29.579,0,8.105,29.579,0,0.158,0.074,255,255
206,74,0.201,8.105,29.579,0,8.211,29.737,0,0.190,0.053,255,255
207,74,0.180,7.105,28.211,0,7.053,28.368,0,0.166,0.167,255,255
208,74,0.180,7.684,26.947,0,7.842,26.895,0,0.166,0.167,255,255
209,74,0.180,8.053,26.684,0,8.000,26.842,0,0.166,0.180,255,255
210,74,0.180,7.842,26.895,0,8.000,26.842,0,0.166,0.053,255,255
211,74,0.127,7.000,28.474,0,7.053,28.368,0,0.118,0.127,255,255
212,75,0.127,6.789,36.263,0,6.842,36.368,0,0.118,0.111,255,255
213,78,0.868,7.316,33.579,0,7.421,34.316,0,0.744,0.806,255,255
214,78,0.753,7.789,33.789,0,7.421,34.316,0,0.642,0.614,255,255
215,78,0.710,7.737,35.421,0,7.316,34.947,0,0.634,0.648,255,255
216,78,0.675,7.316,34.947,0,7.421,34.316,0,0.640,0.475,255,255
217,78,0.657,7.000,35.474,0,7.316,34.947,0,0.614,0.592,255,255
218,79,0.053,7.053,14.474,0,7.053,14.526,0,0.053,0.053,255,255
219,82,0.307,7.632,35.684,0,7.368,35.789,0,0.283,0.317,255,255
220,82,0.053,7.368,35.842,0,7.368,35.789,0,0.053,0.053,255,255
221,82,0.053,7.368,35.789,0,7.368,35.789,0,0.000,0.000,0,0
222,83,0.911,7.421,23.158,0,7.737,23.895,0,0.802,0.852,255,255
223,84,0.074,7.474,7.211,0,7.526,7.263,0,0.074,0.074,255,255
224,85,0.127,7.526,41.368,0,7.632,41.316,0,0.118,0.133,255,255
225,86,0.359,7.579,16.368,0,7.895,16.263,0,0.333,0.326,255,255
226,87,0.053,7.737,32.895,0,7.737,32.947,0,0.053,0.053,255,255
227,88,0.053,7.737,42.474,0,7.789,42.474,0,0.053,0.053,255,255
228,89,1.087,8.632,3.316,0,8.526,2.316,0,1.006,1.034,255,255
229,89,0.986,7.842,1.737,0,8.526,2.316,0,0.896,0.925,255,255
230,89,0.447,8.842,2.632,0,8.526,2.316,0,0.447,0.447,255,255
231,90,1.704,8.211,33.000,0,9.316,32.000,0,1.491,1.495,255,255
232,90,0.828,9.895,32.895,0,9.263,32.421,0,0.789,0.800,255,255
233,90,0.732,10.158,32.421,0,10.579,32.947,0,0.674,0.489,255,255
234,90,0.614,8.789,32.684,0,9.263,32.421,0,0.542,0.568,255,255
235,90,0.604,9.842,31.474,0,9.368,31.684,0,0.518,0.598,255,255
236,90,0.570,9.368,32.211,0,9.895,32.211,0,0.526,0.434,255,255
237,90,0.486,10.053,31.789,0,9.895,32.211,0,0.450,0.477,255,255
238,90,0.456,10.526,32.211,0,10.158,32.421,0,0.424,0.446,255,255
239,90,0.359,8.211,33.000,0,8.211,33.316,0,0.316,0.232,255,255
240,90,0.350,9.895,32.211,0,10.158,32.421,0,0.337,0.223,255,255
241,90,0.338,7.895,33.263,0,8.211,33.316,0,0.320,0.349,255,255
242,90,0.338,9.316,32.000,0,9.368,31.684,0,0.320,0.211,255,255
243,90,0.285,8.474,33.368,0,8.211,33.316,0,0.268,0.265,255,255
244,90,0.276,9.211,31.474,0,9.368,31.684,0,0.263,0.241,255,255
245,90,0.254,10.474,33.158,0,10.579,32.947,0,0.235,0.226,255,255
246,90,0.254,9.263,32.421,0,9.368,32.211,0,0.235,0.127,255,255
247,90,0.232,9.316,32.000,0,9.368,32.211,0,0.217,0.105,255,255
248,90,0.127,8.105,33.053,0,8.211,33.000,0,0.118,0.133,255,255
249,90,0.127,10.684,32.895,0,10.579,32.947,0,0.118,0.053,255,255
250,91,0.846,8.474,48.263,0,9.158,47.947,0,0.754,0.620,255,255
251,91,0.548,7.947,48.316,0,8.474,48.263,0,0.529,0.539,255,255
252,91,0.443,9.579,48.000,0,9.158,47.947,0,0.424,0.434,255,255
253,91,0.434,8.632,48.632,0,8.474,48.263,0,0.401,0.421,255,255
254,91,0.381,9.316,47.632,0,9.158,47.947,0,0.353,0.379,255,255
255,92,0.074,8.158,23.211,0,8.211,23.263,0,0.074,0.074,255,255
256,93,2.616,11.368,6.421,0,9.526,6.263,0,1.849,2.436,255,255
257,93,2.173,10.737,7.842,0,9.526,6.263,0,1.990,2.063,255,255
258,93,1.187,8.789,5.474,0,9.526,6.263,0,1.080,0.943,255,255
259,93,0.824,8.895,4.737,0,8.789,5.474,0,0.744,0.797,255,255
260,93,0.570,8.263,5.579,0,8.789,5.474,0,0.537,0.542,255,255
261,94,0.074,8.263,16.211,0,8.316,16.263,0,0.074,0.074,255,255
262,96,2.002,10.421,45.421,0,9.474,43.842,0,1.841,1.946,255,255
263,96,1.822,11.158,41.947,0,9.789,41.105,0,1.607,1.725,255,255
264,96,1.626,10.211,39.263,0,10.368,37.947,0,1.325,1.432,255,255
265,96,1.559,10.684,42.526,0,9.474,41.684,0,1.475,1.512,255,255
266,96,1.547,9.211,38.632,0,10.368,37.947,0,1.345,1.461,255,255
267,96,1.429,10.526,44.526,0,9.474,43.842,0,1.255,1.361,255,255
268,96,1.367,8.368,41.053,0,9.474,41.684,0,1.273,1.287,255,255
269,96,1.310,9.789,40.368,0,10.211,39.263,0,1.183,1.147,255,255
270,96,1.292,10.105,36.895,0,10.368,37.947,0,1.085,1.231,255,255
271,96,1.109,9.053,43.105,0,9.316,42.105,0,1.034,0.907,255,255
272,96,1.104,10.053,42.842,0,9.316,42.105,0,1.042,1.049,255,255
273,96,0.977,8.316,43.684,0,9.053,43.105,0,0.937,0.965,255,255
274,96,0.973,9.053,43.105,0,9.474,43.842,0,0.849,0.780,255,255
275,96,0.780,9.789,40.368,0,9.789,41.105,0,0.737,0.644,255,255
276,96,0.741,9.474,41.684,0,9.789,41.105,0,0.659,0.588,255,255
277,96,0.723,9.316,39.842,0,9.789,40.368,0,0.708,0.680,255,255
278,96,0.595,10.842,37.632,0,10.368,37.947,0,0.569,0.563,255,255
279,96,0.499,9.842,38.947,0,10.211,39.263,0,0.485,0.457,255,255
280,96,0.456,9.316,42.105,0,9.474,41.684,0,0.450,0.255,255,255
281,97,0.920,8.474,8.474,0,8.632,7.737,0,0.754,0.835,255,255
282,98,0.053,8.474,44.895,0,8.526,44.895,0,0.053,0.053,255,255
283,99,0.307,8.789,33.474,0,9.053,33.579,0,0.283,0.304,255,255
284,100,1.565,12.632,19.158,0,11.316,18.737,0,1.382,1.452,255,255
285,100,1.438,8.842,18.842,0,9.105,20.053,0,1.239,1.388,255,255
286,100,1.372,9.105,20.053,0,10.368,19.789,0,1.290,1.116,255,255
287,100,1.354,9.526,17.421,0,10.632,17.105,0,1.149,1.261,255,255
288,100,1.249,11.053,16.526,0,12.105,17.000,0,1.154,1.028,255,255
289,100,1.026,10.632,17.105,0,10.632,18.000,0,0.895,0.829,255,255
290,100,0.920,10.684,18.263,0,11.316,18.737,0,0.789,0.693,255,255
291,100,0.920,11.105,19.158,0,11.895,19.474,0,0.850,0.803,255,255
292,100,0.898,11.947,16.211,0,12.105,17.000,0,0.805,0.853,255,255
293,100,0.846,10.632,17.105,0,11.053,16.526,0,0.716,0.656,255,255
294,100,0.784,12.684,17.421,0,12.105,17.000,0,0.716,0.738,255,255
295,100,0.710,10.684,19.632,0,11.105,19.158,0,0.634,0.557,255,255
296,100,0.644,10.895,15.947,0,11.053,16.526,0,0.600,0.597,255,255
297,100,0.539,9.263,20.526,0,9.105,20.053,0,0.499,0.528,255,255
298,100,0.508,11.105,19.158,0,11.316,18.737,0,0.471,0.331,255,255
299,100,0.499,11.053,19.947,0,10.684,19.632,0,0.485,0.457,255,255
300,100,0.486,10.421,20.211,0,10.368,19.789,0,0.424,0.460,255,255
301,100,0.412,12.000,19.842,0,11.895,19.474,0,0.383,0.403,255,255
302,100,0.381,10.368,19.789,0,10.684,19.632,0,0.353,0.226,255,255
303,100,0.329,10.632,18.000,0,10.684,18.263,0,0.268,0.208,255,255
304,100,0.232,12.105,19.421,0,11.895,19.474,0,0.217,0.217,255,255
305,100,0.158,10.474,18.000,0,10.632,18.000,0,0.158,0.158,255,255
306,100,0.127,10.632,18.368,0,10.684,18.263,0,0.118,0.127,255,255
307,101,0.053,8.842,21.105,0,8.842,21.158,0,0.053,0.053,255,255
308,102,0.390,8.842,25.000,0,9.211,24.947,0,0.372,0.402,255,255
309,103,0.053,9.000,3.053,0,9.000,3.105,0,0.053,0.053,255,255
310,104,0.929,9.053,14.842,0,9.895,14.737,0,0.849,0.868,255,255
311,104,0.201,9.895,14.895,0,9.895,14.737,0,0.158,0.208,255,255
312,104,0.127,10.000,14.684,0,9.895,14.737,0,0.118,0.127,255,255
313,107,0.149,9.368,33.421,0,9.474,33.316,0,0.149,0.149,255,255
314,109,1.741,11.789,31.895,0,11.842,30.263,0,1.632,1.690,255,255
315,109,1.494,9.474,29.947,0,10.421,29.000,0,1.340,1.369,255,255
316,109,1.327,12.263,30.000,0,13.263,29.211,0,1.274,1.251,255,255
317,109,1.200,10.947,30.895,0,11.842,30.263,0,1.095,1.135,255,255
