 ,Skeleton ID,Branch length,V1 x,V1 y,V1 z,V2 x,V2 y,V2 z,Euclidean distance,running average length,average intensity (inner 3rd),average intensity
1,1,0.026,0.026,25.731,0,0.052,25.731,0,0.026,0.026,255,255
2,2,0.063,0.052,13.062,0,0.105,13.036,0,0.059,0.066,255,255
3,3,0.253,0.105,7.056,0,0.289,7.187,0,0.226,0.227,255,255
4,4,0.627,0.315,21.115,0,0.866,21.246,0,0.566,0.596,255,255
5,5,0.830,1.993,14.085,0,1.416,13.587,0,0.762,0.771,255,255
6,5,0.714,1.626,12.511,0,1.075,12.852,0,0.648,0.653,255,255
7,5,0.642,0.420,12.800,0,0.997,12.643,0,0.598,0.605,255,255
8,5,0.614,1.049,13.456,0,1.075,12.852,0,0.604,0.551,255,255
9,5,0.487,1.784,13.298,0,1.416,13.587,0,0.467,0.459,255,255
10,5,0.465,1.023,14.321,0,1.259,13.954,0,0.437,0.436,255,255
11,5,0.432,1.338,14.295,0,1.259,13.954,0,0.350,0.402,255,255
12,5,0.384,0.997,12.643,0,1.102,12.302,0,0.357,0.309,255,255
13,5,0.352,0.708,13.482,0,1.049,13.456,0,0.342,0.358,255,255
14,5,0.338,1.364,12.118,0,1.102,12.302,0,0.320,0.324,255,255
15,5,0.321,1.233,13.666,0,1.259,13.954,0,0.290,0.247,255,255
16,5,0.301,1.049,13.456,0,1.233,13.666,0,0.279,0.211,255,255
17,5,0.280,0.761,11.987,0,0.997,12.092,0,0.258,0.248,255,255
18,5,0.253,0.997,12.092,0,1.102,12.302,0,0.235,0.165,255,255
19,5,0.242,0.997,12.643,0,1.075,12.852,0,0.224,0.158,255,255
20,5,0.216,1.233,13.666,0,1.416,13.587,0,0.200,0.127,255,255
21,5,0.190,1.102,11.961,0,0.997,12.092,0,0.168,0.180,255,255
22,6,0.458,1.128,20.511,0,0.708,20.459,0,0.423,0.460,255,255
23,6,0.212,0.866,20.328,0,0.708,20.459,0,0.205,0.191,255,255
24,6,0.190,0.551,20.433,0,0.708,20.459,0,0.160,0.175,255,255
25,6,0.159,0.787,20.590,0,0.708,20.459,0,0.153,0.146,255,255
26,7,0.574,0.577,2.780,0,1.023,3.016,0,0.505,0.543,255,255
27,8,0.175,0.708,2.203,0,0.813,2.072,0,0.168,0.164,255,255
28,9,0.037,1.154,21.010,0,1.180,20.984,0,0.037,0.037,255,255
29,10,0.037,1.285,20.407,0,1.311,20.380,0,0.037,0.037,255,255
30,11,0.681,1.548,25.495,0,2.098,25.757,0,0.610,0.564,255,255
31,11,0.522,1.364,25.941,0,1.548,25.495,0,0.482,0.498,255,255
32,11,0.349,1.285,25.285,0,1.548,25.495,0,0.336,0.322,255,255
33,11,0.227,2.230,25.600,0,2.098,25.757,0,0.205,0.215,255,255
34,11,0.190,2.203,25.889,0,2.098,25.757,0,0.168,0.178,255,255
35,12,1.323,1.679,19.698,0,2.518,18.754,0,1.263,1.198,255,255
36,12,1.133,1.548,19.069,0,2.492,18.649,0,1.033,1.081,255,255
37,12,1.078,3.646,18.597,0,2.833,18.780,0,0.834,0.967,255,255
38,12,0.821,1.836,20.433,0,1.679,19.698,0,0.751,0.784,255,255
39,12,0.659,1.338,19.279,0,1.679,19.698,0,0.541,0.623,255,255
40,12,0.649,3.384,19.016,0,2.833,18.780,0,0.599,0.602,255,255
41,12,0.550,2.833,18.020,0,2.492,18.413,0,0.521,0.524,255,255
42,12,0.487,2.256,18.046,0,2.492,18.413,0,0.437,0.446,255,255
43,12,0.326,2.518,18.754,0,2.833,18.780,0,0.316,0.213,255,255
44,12,0.258,2.492,18.413,0,2.492,18.649,0,0.236,0.194,255,255
45,12,0.138,2.492,18.649,0,2.518,18.754,0,0.108,0.074,255,255
46,13,0.026,1.652,21.613,0,1.679,21.613,0,0.026,0.026,255,255
47,14,0.570,1.679,20.721,0,2.046,21.062,0,0.501,0.520,255,255
48,15,2.055,2.938,15.213,0,2.177,16.157,0,1.213,1.885,255,255
49,15,0.480,2.020,15.764,0,2.177,16.157,0,0.424,0.410,255,255
50,15,0.437,1.784,16.105,0,2.177,16.157,0,0.397,0.408,255,255
51,16,0.052,1.889,15.082,0,1.889,15.134,0,0.052,0.052,255,255
52,17,0.970,1.915,10.964,0,2.754,10.964,0,0.839,0.945,255,255
53,17,0.830,3.515,11.331,0,3.226,10.702,0,0.692,0.782,255,255
54,17,0.612,2.754,10.964,0,3.226,10.702,0,0.540,0.505,255,255
55,17,0.524,3.856,10.649,0,3.489,10.308,0,0.501,0.491,255,255
56,17,0.452,3.279,9.967,0,3.357,10.387,0,0.427,0.425,255,255
57,17,0.450,3.830,10.046,0,3.489,10.308,0,0.430,0.422,255,255
58,17,0.434,2.964,11.279,0,2.754,10.964,0,0.378,0.401,255,255
59,17,0.423,2.544,11.279,0,2.754,10.964,0,0.378,0.404,255,255
60,17,0.369,3.226,10.702,0,3.357,10.387,0,0.341,0.296,255,255
61,17,0.164,3.357,10.387,0,3.489,10.308,0,0.153,0.106,255,255
62,18,0.026,2.098,12.931,0,2.125,12.931,0,0.026,0.026,255,255
63,19,0.063,2.230,21.272,0,2.256,21.220,0,0.059,0.056,255,255
64,20,1.138,4.013,24.446,0,3.043,24.341,0,0.976,1.046,255,255
65,20,0.736,2.361,24.315,0,3.043,24.341,0,0.682,0.707,255,255
66,20,0.646,3.462,23.869,0,3.043,24.341,0,0.632,0.619,255,255
67,21,0.037,2.387,3.934,0,2.413,3.908,0,0.037,0.037,255,255
68,22,0.074,2.413,25.705,0,2.466,25.757,0,0.074,0.074,255,255
69,23,0.810,3.069,11.987,0,3.803,11.961,0,0.735,0.721,255,255
70,23,0.653,3.803,11.961,0,4.354,11.856,0,0.561,0.521,255,255
71,23,0.622,2.544,12.538,0,2.780,12.013,0,0.575,0.606,255,255
72,23,0.439,3.462,11.593,0,3.121,11.830,0,0.415,0.372,255,255
73,23,0.432,2.466,11.803,0,2.780,12.013,0,0.378,0.385,255,255
74,23,0.395,3.095,11.489,0,3.121,11.830,0,0.342,0.356,255,255
75,23,0.299,2.780,12.013,0,3.069,11.987,0,0.290,0.237,255,255
76,23,0.295,3.777,11.698,0,3.803,11.961,0,0.264,0.289,255,255
77,23,0.179,3.069,11.987,0,3.121,11.830,0,0.166,0.110,255,255
78,23,0.100,4.433,11.856,0,4.354,11.856,0,0.079,0.104,255,255
79,23,0.026,4.354,11.830,0,4.354,11.856,0,0.026,0.026,255,255
80,24,0.026,2.649,6.190,0,2.675,6.190,0,0.026,0.026,255,255
81,25,0.127,2.754,26.177,0,2.807,26.282,0,0.117,0.123,255,255
82,26,1.048,4.223,21.639,0,3.856,20.774,0,0.940,0.982,255,255
83,26,0.924,2.911,20.748,0,3.672,20.669,0,0.765,0.876,255,255
84,26,0.810,4.275,19.987,0,3.672,20.485,0,0.783,0.782,255,255
85,26,0.721,4.511,20.931,0,3.856,20.774,0,0.674,0.702,255,255
86,26,0.644,3.384,19.961,0,3.672,20.485,0,0.599,0.534,255,255
87,26,0.406,3.279,19.620,0,3.384,19.961,0,0.357,0.409,255,255
88,26,0.402,3.148,19.672,0,3.384,19.961,0,0.373,0.370,255,255
89,26,0.227,3.672,20.669,0,3.856,20.774,0,0.211,0.166,255,255
90,26,0.205,3.672,20.485,0,3.672,20.669,0,0.184,0.142,255,255
91,27,0.063,3.016,4.852,0,3.069,4.879,0,0.059,0.066,255,255
92,28,0.332,3.095,14.138,0,3.174,13.928,0,0.224,0.277,255,255
93,29,0.513,3.174,17.338,0,3.567,17.626,0,0.488,0.494,255,255
94,29,0.100,3.620,17.548,0,3.567,17.626,0,0.095,0.104,255,255
95,29,0.090,3.593,17.705,0,3.567,17.626,0,0.083,0.090,255,255
96,30,1.485,3.961,4.748,0,5.115,5.325,0,1.290,1.344,255,255
97,30,0.752,4.748,4.170,0,4.144,4.380,0,0.639,0.728,255,255
98,30,0.688,5.770,5.403,0,5.115,5.325,0,0.660,0.665,255,255
99,30,0.459,3.961,4.748,0,4.144,4.380,0,0.411,0.396,255,255
100,30,0.363,3.515,4.721,0,3.830,4.695,0,0.316,0.343,255,255
101,30,0.269,3.803,4.459,0,3.830,4.695,0,0.238,0.255,255,255
102,30,0.242,5.141,5.115,0,5.115,5.325,0,0.211,0.238,255,255
103,30,0.205,5.167,5.508,0,5.115,5.325,0,0.191,0.201,255,255
104,30,0.153,3.830,4.695,0,3.961,4.748,0,0.141,0.080,255,255
105,30,0.138,4.039,4.302,0,4.144,4.380,0,0.131,0.120,255,255
106,31,0.026,3.698,4.275,0,3.698,4.302,0,0.026,0.026,255,255
107,32,0.090,3.725,16.000,0,3.803,16.026,0,0.083,0.083,255,255
108,33,1.622,3.777,6.348,0,4.826,7.397,0,1.484,1.500,255,255
109,33,1.532,3.751,8.315,0,4.826,7.397,0,1.414,1.456,255,255
110,33,1.195,5.036,7.449,0,6.111,7.633,0,1.091,1.083,255,255
111,33,1.194,5.849,8.630,0,5.141,7.790,0,1.098,1.126,255,255
112,33,0.603,4.826,8.262,0,5.141,7.790,0,0.567,0.498,255,255
113,33,0.406,5.036,7.449,0,5.141,7.790,0,0.357,0.377,255,255
114,33,0.386,5.089,8.525,0,4.826,8.262,0,0.371,0.365,255,255
115,33,0.374,6.452,7.607,0,6.111,7.633,0,0.342,0.318,255,255
116,33,0.365,6.295,7.921,0,6.111,7.633,0,0.342,0.329,255,255
117,33,0.338,4.643,8.525,0,4.826,8.262,0,0.320,0.296,255,255
118,33,0.232,4.826,7.397,0,5.036,7.449,0,0.216,0.190,255,255
119,33,0.175,4.748,8.656,0,4.643,8.525,0,0.168,0.120,255,255
120,33,0.142,4.511,8.551,0,4.643,8.525,0,0.134,0.132,255,255
121,34,1.411,4.328,15.895,0,4.013,14.636,0,1.298,1.360,255,255
122,34,1.319,4.721,13.193,0,5.403,14.138,0,1.165,1.165,255,255
123,34,0.937,6.741,13.115,0,5.928,12.957,0,0.828,0.879,255,255
124,34,0.908,4.302,13.928,0,4.721,13.193,0,0.846,0.785,255,255
125,34,0.854,6.400,13.508,0,5.928,12.957,0,0.725,0.800,255,255
126,34,0.760,4.013,14.636,0,4.433,14.164,0,0.632,0.663,255,255
127,34,0.631,4.852,12.669,0,5.430,12.590,0,0.582,0.582,255,255
128,34,0.601,4.852,12.538,0,4.957,12.039,0,0.509,0.542,255,255
129,34,0.520,5.456,14.636,0,5.403,14.138,0,0.501,0.506,255,255
130,34,0.459,5.692,12.643,0,5.928,12.957,0,0.393,0.404,255,255
131,34,0.437,5.797,14.033,0,5.403,14.138,0,0.407,0.421,255,255
132,34,0.428,5.902,12.302,0,5.692,12.643,0,0.400,0.391,255,255
133,34,0.411,4.721,13.010,0,4.852,12.669,0,0.365,0.326,255,255
134,34,0.395,3.961,13.797,0,4.302,13.928,0,0.365,0.382,255,255
135,34,0.343,5.246,11.908,0,4.957,12.039,0,0.317,0.311,255,255
136,34,0.338,3.777,14.426,0,4.013,14.636,0,0.316,0.303,255,255
137,34,0.332,4.249,13.062,0,4.511,12.931,0,0.293,0.301,255,255
138,34,0.290,4.302,13.928,0,4.433,14.164,0,0.270,0.210,255,255
139,34,0.286,4.302,12.748,0,4.511,12.931,0,0.279,0.265,255,255
140,34,0.284,5.430,12.590,0,5.692,12.643,0,0.267,0.158,255,255
141,34,0.242,4.511,12.931,0,4.721,13.010,0,0.224,0.160,255,255
142,34,0.216,4.616,14.085,0,4.433,14.164,0,0.200,0.206,255,255
143,34,0.212,4.721,12.380,0,4.852,12.538,0,0.205,0.191,255,255
144,34,0.205,4.721,13.010,0,4.721,13.193,0,0.184,0.142,255,255
145,34,0.153,4.852,12.538,0,4.852,12.669,0,0.131,0.094,255,255
146,34,0.100,5.430,12.511,0,5.430,12.590,0,0.079,0.093,255,255
147,34,0.063,4.905,12.013,0,4.957,12.039,0,0.059,0.066,255,255
148,35,0.127,3.987,0.315,0,4.039,0.210,0,0.117,0.123,255,255
149,36,0.179,4.328,22.085,0,4.485,22.138,0,0.166,0.173,255,255
150,37,1.035,4.433,9.810,0,5.246,10.098,0,0.863,0.948,255,255
151,37,0.902,5.246,10.098,0,5.666,9.416,0,0.801,0.773,255,255
152,37,0.613,4.800,10.466,0,5.246,10.098,0,0.578,0.590,255,255
153,37,0.452,5.666,9.416,0,6.085,9.443,0,0.420,0.341,255,255
154,37,0.417,6.164,9.469,0,6.348,9.810,0,0.387,0.313,255,255
155,37,0.411,6.452,10.177,0,6.348,9.810,0,0.382,0.394,255,255
156,37,0.395,5.770,9.102,0,5.666,9.416,0,0.332,0.375,255,255
157,37,0.337,5.403,10.361,0,5.246,10.098,0,0.306,0.319,255,255
158,37,0.286,5.902,9.233,0,6.085,9.443,0,0.279,0.265,255,255
159,37,0.142,6.190,9.338,0,6.164,9.469,0,0.134,0.142,255,255
160,37,0.142,6.479,9.784,0,6.348,9.810,0,0.134,0.136,255,255
161,37,0.090,6.085,9.443,0,6.164,9.469,0,0.083,0.056,255,255
162,38,0.037,4.564,17.521,0,4.590,17.495,0,0.037,0.037,255,255
163,39,0.105,4.564,19.803,0,4.669,19.803,0,0.105,0.105,255,255
164,40,0.063,4.616,16.839,0,4.669,16.866,0,0.059,0.066,255,255
165,41,0.026,4.669,14.662,0,4.669,14.689,0,0.026,0.026,255,255
166,42,0.026,4.695,4.905,0,4.695,4.931,0,0.026,0.026,255,255
167,43,0.052,4.695,17.075,0,4.748,17.075,0,0.052,0.052,255,255
168,44,0.452,5.246,18.203,0,4.826,18.125,0,0.427,0.414,255,255
169,44,0.216,4.748,18.308,0,4.826,18.125,0,0.200,0.176,255,255
170,44,0.100,4.748,18.072,0,4.826,18.125,0,0.095,0.087,255,255
171,45,0.769,4.774,18.518,0,5.430,18.702,0,0.681,0.719,255,255
172,46,0.280,4.800,14.820,0,4.984,14.662,0,0.242,0.251,255,255
173,47,0.100,4.852,15.764,0,4.931,15.711,0,0.095,0.098,255,255
174,48,0.679,5.377,22.295,0,4.984,22.636,0,0.521,0.650,255,255
175,48,0.164,5.062,22.767,0,4.984,22.636,0,0.153,0.150,255,255
176,48,0.063,4.931,22.662,0,4.984,22.636,0,0.059,0.056,255,255
177,49,0.321,4.984,21.115,0,5.272,21.193,0,0.299,0.297,255,255
178,49,0.210,5.482,21.193,0,5.272,21.193,0,0.210,0.184,255,255
179,49,0.100,5.220,21.272,0,5.272,21.193,0,0.095,0.066,255,255
180,50,0.037,5.089,17.836,0,5.115,17.862,0,0.037,0.037,255,255
181,51,0.710,5.220,23.318,0,5.639,23.528,0,0.469,0.674,255,255
182,51,0.533,6.007,23.292,0,5.639,23.528,0,0.437,0.516,255,255
183,51,0.406,5.430,23.816,0,5.639,23.528,0,0.357,0.378,255,255
184,52,0.090,5.325,23.895,0,5.403,23.921,0,0.083,0.094,255,255
185,53,0.026,5.377,24.052,0,5.377,24.079,0,0.026,0.026,255,255
186,54,0.164,5.456,25.390,0,5.587,25.311,0,0.153,0.140,255,255
187,55,0.090,5.666,19.148,0,5.718,19.200,0,0.074,0.080,255,255
188,56,0.037,5.692,16.446,0,5.718,16.472,0,0.037,0.037,255,255
189,57,0.037,5.692,21.456,0,5.718,21.482,0,0.037,0.037,255,255
190,58,0.026,5.902,19.987,0,5.902,20.013,0,0.026,0.026,255,255
191,59,0.037,5.928,22.977,0,5.954,23.003,0,0.037,0.037,255,255
192,60,0.026,5.954,25.469,0,5.954,25.495,0,0.026,0.026,255,255
193,61,0.432,6.531,20.197,0,6.348,20.538,0,0.387,0.398,255,255
194,61,0.397,6.138,20.800,0,6.348,20.538,0,0.336,0.370,255,255
195,61,0.354,6.059,20.433,0,6.348,20.538,0,0.307,0.316,255,255
196,61,0.284,6.610,20.590,0,6.348,20.538,0,0.267,0.284,255,255
197,62,0.052,6.059,25.416,0,6.111,25.416,0,0.052,0.052,255,255
198,63,1.309,8.787,0.839,0,10.020,0.866,0,1.233,1.237,255,255
199,63,1.217,7.528,5.325,0,8.603,5.246,0,1.078,1.081,255,255
200,63,1.149,9.521,3.357,0,8.525,3.567,0,1.019,1.071,255,255
201,63,1.103,8.866,4.826,0,9.705,5.351,0,0.990,0.952,255,255
202,63,1.024,10.361,4.800,0,9.705,5.351,0,0.856,0.952,255,255
203,63,0.941,8.367,3.016,0,9.102,2.518,0,0.888,0.876,255,255
204,63,0.893,7.816,6.662,0,7.344,5.980,0,0.829,0.866,255,255
205,63,0.888,6.085,5.744,0,6.741,5.377,0,0.752,0.858,255,255
206,63,0.878,7.528,1.993,0,8.210,2.466,0,0.829,0.841,255,255
207,63,0.841,8.210,2.466,0,8.341,1.679,0,0.798,0.802,255,255
208,63,0.788,8.341,1.443,0,8.787,0.839,0,0.750,0.689,255,255
209,63,0.749,10.334,1.469,0,10.020,0.866,0,0.680,0.704,255,255
210,63,0.738,8.525,3.567,0,8.787,4.197,0,0.682,0.610,255,255
211,63,0.721,6.741,5.377,0,7.397,5.482,0,0.664,0.620,255,255
212,63,0.709,8.866,2.125,0,8.341,1.679,0,0.688,0.678,255,255
213,63,0.703,6.216,4.984,0,6.741,5.377,0,0.656,0.653,255,255
214,63,0.701,9.836,4.748,0,9.705,5.351,0,0.617,0.662,255,255
215,63,0.684,8.787,4.197,0,8.866,4.826,0,0.634,0.615,255,255
216,63,0.642,9.757,5.928,0,9.705,5.351,0,0.579,0.621,255,255
217,63,0.635,6.898,6.400,0,7.344,5.980,0,0.612,0.600,255,255
218,63,0.631,8.210,2.466,0,8.367,3.016,0,0.573,0.569,255,255
219,63,0.616,8.367,3.016,0,8.525,3.567,0,0.573,0.510,255,255
220,63,0.585,7.344,5.980,0,7.397,5.482,0,0.501,0.482,255,255
221,63,0.564,10.518,0.866,0,10.020,0.866,0,0.498,0.523,255,255
222,63,0.564,9.285,4.302,0,8.787,4.197,0,0.509,0.532,255,255
223,63,0.528,8.603,5.246,0,8.866,4.826,0,0.495,0.438,255,255
224,63,0.522,8.603,0.393,0,8.787,0.839,0,0.482,0.488,255,255
225,63,0.507,8.970,5.508,0,8.603,5.246,0,0.451,0.463,255,255
226,63,0.502,7.790,4.931,0,7.528,5.325,0,0.473,0.472,255,255
227,63,0.463,9.521,2.623,0,9.102,2.518,0,0.433,0.434,255,255
228,63,0.310,8.052,1.443,0,8.341,1.443,0,0.289,0.293,255,255
229,63,0.236,8.341,1.443,0,8.341,1.679,0,0.236,0.210,255,255
230,63,0.227,7.397,5.482,0,7.528,5.325,0,0.205,0.160,255,255
231,63,0.100,9.154,2.439,0,9.102,2.518,0,0.095,0.104,255,255
232,64,0.269,6.138,21.325,0,6.374,21.298,0,0.238,0.242,255,255
233,65,0.142,6.164,19.016,0,6.295,19.043,0,0.134,0.134,255,255
234,66,1.632,7.397,9.993,0,7.738,8.525,0,1.508,1.542,255,255
235,66,1.504,8.866,7.764,0,7.921,8.498,0,1.196,1.404,255,255
236,66,1.260,7.633,7.134,0,7.764,8.210,0,1.083,1.144,255,255
237,66,1.253,7.134,7.239,0,7.764,8.210,0,1.157,1.204,255,255
238,66,1.129,7.921,8.498,0,8.866,8.892,0,1.023,1.041,255,255
239,66,1.096,11.121,7.790,0,10.177,8.105,0,0.995,1.053,255,255
240,66,0.873,6.610,8.970,0,7.239,8.420,0,0.836,0.779,255,255
241,66,0.869,6.636,7.816,0,7.239,8.420,0,0.853,0.836,255,255
242,66,0.794,9.364,7.869,0,9.915,8.420,0,0.779,0.765,255,255
243,66,0.738,8.944,8.341,0,9.574,8.603,0,0.682,0.688,255,255
244,66,0.716,10.020,8.420,0,10.256,9.023,0,0.648,0.607,255,255
245,66,0.564,10.964,9.311,0,10.466,9.469,0,0.523,0.564,255,255
246,66,0.542,7.239,8.420,0,7.738,8.525,0,0.509,0.428,255,255
247,66,0.533,10.256,9.023,0,10.466,9.469,0,0.493,0.436,255,255
248,66,0.520,10.177,7.607,0,10.177,8.105,0,0.498,0.504,255,255
249,66,0.463,8.866,8.892,0,9.285,8.787,0,0.433,0.408,255,255
250,66,0.417,9.574,8.603,0,9.915,8.420,0,0.387,0.324,255,255
251,66,0.380,10.020,8.420,0,10.177,8.105,0,0.352,0.287,255,255
252,66,0.365,9.285,8.787,0,9.574,8.603,0,0.342,0.228,255,255
253,66,0.321,7.764,8.210,0,7.790,8.498,0,0.290,0.281,255,255
254,66,0.280,10.570,9.705,0,10.466,9.469,0,0.258,0.254,255,255
255,66,0.275,9.075,9.049,0,8.866,8.892,0,0.262,0.248,255,255
256,66,0.275,10.728,8.866,0,10.518,9.023,0,0.262,0.210,255,255
257,66,0.262,10.256,9.023,0,10.518,9.023,0,0.262,0.157,255,255
258,66,0.232,6.400,8.970,0,6.610,8.970,0,0.210,0.217,255,255
259,66,0.212,10.675,9.154,0,10.518,9.023,0,0.205,0.191,255,255
260,66,0.179,6.610,9.128,0,6.610,8.970,0,0.157,0.185,255,255
261,66,0.131,7.790,8.498,0,7.921,8.498,0,0.131,0.052,255,255
262,66,0.105,9.915,8.420,0,10.020,8.420,0,0.105,0.079,255,255
263,66,0.100,9.285,8.866,0,9.285,8.787,0,0.079,0.104,255,255
264,66,0.063,7.738,8.525,0,7.790,8.498,0,0.059,0.037,255,255
265,67,0.026,6.479,23.738,0,6.479,23.764,0,0.026,0.026,255,255
266,68,0.063,6.531,6.138,0,6.584,6.164,0,0.059,0.066,255,255
267,69,2.245,7.239,21.954,0,7.554,23.318,0,1.400,2.093,255,255
268,69,0.985,6.741,23.659,0,7.554,23.318,0,0.882,0.946,255,255
269,69,0.548,7.554,23.318,0,7.764,23.764,0,0.493,0.468,255,255
270,69,0.517,8.157,23.869,0,7.764,24.026,0,0.424,0.488,255,255
271,69,0.485,8.184,23.711,0,7.764,23.764,0,0.423,0.445,255,255
272,69,0.375,7.502,24.262,0,7.764,24.026,0,0.353,0.355,255,255
273,69,0.284,7.764,23.764,0,7.764,24.026,0,0.262,0.221,255,255
274,70,0.338,6.767,19.934,0,7.003,20.144,0,0.316,0.314,255,255
275,71,0.961,6.793,17.993,0,7.344,17.338,0,0.856,0.909,255,255
276,71,0.655,7.738,17.993,0,7.843,17.495,0,0.509,0.607,255,255
277,71,0.564,7.344,17.338,0,7.843,17.495,0,0.523,0.498,255,255
278,71,0.496,7.974,17.075,0,7.843,17.495,0,0.440,0.445,255,255
279,71,0.463,7.449,16.918,0,7.344,17.338,0,0.433,0.418,255,255
280,71,0.174,8.000,17.495,0,7.843,17.495,0,0.157,0.169,255,255
281,72,0.063,6.925,0.446,0,6.977,0.420,0,0.059,0.066,255,255
282,73,0.026,7.003,0.892,0,7.030,0.892,0,0.026,0.026,255,255
283,74,0.264,7.108,10.334,0,7.318,10.203,0,0.247,0.233,255,255
284,75,0.063,7.161,18.466,0,7.187,18.518,0,0.059,0.066,255,255
285,76,1.167,7.921,13.928,0,8.000,15.003,0,1.078,1.092,255,255
286,76,1.079,8.000,15.003,0,8.000,15.974,0,0.970,0.982,255,255
287,76,0.913,8.131,13.167,0,7.921,13.928,0,0.789,0.840,255,255
288,76,0.882,8.944,15.502,0,8.289,15.187,0,0.727,0.840,255,255
289,76,0.734,7.318,13.875,0,7.921,13.928,0,0.606,0.688,255,255
290,76,0.658,7.397,15.134,0,8.000,15.003,0,0.617,0.648,255,255
291,76,0.468,8.734,15.239,0,8.289,15.187,0,0.449,0.459,255,255
292,76,0.402,8.289,16.210,0,8.000,15.974,0,0.373,0.395,255,255
293,76,0.360,8.000,15.003,0,8.289,15.187,0,0.342,0.245,255,255
294,76,0.312,7.816,16.210,0,8.000,15.974,0,0.299,0.300,255,255
295,77,0.074,7.554,11.593,0,7.554,11.646,0,0.052,0.063,255,255
296,78,0.079,7.790,10.833,0,7.790,10.911,0,0.079,0.079,255,255
297,79,2.320,9.075,19.200,0,9.495,21.272,0,2.114,2.126,255,255
298,79,1.279,9.128,17.128,0,9.757,18.125,0,1.179,1.239,255,255
299,79,1.138,11.777,21.377,0,10.780,21.561,0,1.013,1.062,255,255
300,79,1.079,10.675,17.233,0,10.387,18.125,0,0.937,1.049,255,255
301,79,1.020,9.731,17.180,0,9.757,18.125,0,0.945,1.009,255,255
302,79,0.887,9.233,18.675,0,9.941,18.282,0,0.810,0.777,255,255
303,79,0.865,8.341,19.515,0,9.075,19.200,0,0.799,0.728,255,255
304,79,0.830,9.075,21.928,0,9.495,21.272,0,0.779,0.790,255,255
305,79,0.786,9.679,22.033,0,9.836,21.377,0,0.674,0.739,255,255
306,79,0.773,8.656,18.203,0,9.233,18.675,0,0.746,0.673,255,255
307,79,0.720,9.993,21.980,0,10.466,21.456,0,0.706,0.701,255,255
308,79,0.662,9.836,21.377,0,10.466,21.456,0,0.634,0.581,255,255
309,79,0.640,11.305,21.980,0,10.807,21.639,0,0.604,0.606,255,255
310,79,0.618,11.095,17.416,0,10.807,17.915,0,0.576,0.595,255,255
311,79,0.612,8.656,17.679,0,8.656,18.203,0,0.525,0.566,255,255
312,79,0.590,9.023,21.325,0,9.495,21.272,0,0.475,0.574,255,255
313,79,0.590,9.075,19.200,0,9.233,18.675,0,0.548,0.495,255,255
314,79,0.533,11.252,18.125,0,10.807,17.915,0,0.493,0.501,255,255
315,79,0.531,10.728,22.138,0,10.807,21.639,0,0.505,0.510,255,255
316,79,0.511,9.941,18.282,0,10.387,18.125,0,0.473,0.444,255,255
317,79,0.507,10.387,18.125,0,10.807,17.915,0,0.469,0.395,255,255
318,79,0.498,11.016,21.089,0,10.702,21.456,0,0.484,0.470,255,255
319,79,0.432,8.289,18.151,0,8.656,18.203,0,0.371,0.415,255,255
320,79,0.384,9.495,21.272,0,9.836,21.377,0,0.357,0.230,255,255
