 ,Skeleton ID,Branch length,V1 x,V1 y,V1 z,V2 x,V2 y,V2 z,Euclidean distance,running average length,average intensity (inner 3rd),average intensity
1,1,0.290,0.079,17.207,0,0.262,17.023,0,0.260,0.264,255,255
2,2,1.068,0.079,25.731,0,0.682,26.518,0,0.992,0.995,255,255
3,3,0.138,0.105,25.207,0,0.184,25.311,0,0.131,0.120,255,255
4,4,0.116,0.131,2.334,0,0.236,2.361,0,0.108,0.107,255,255
5,5,0.127,0.210,4.328,0,0.210,4.433,0,0.105,0.108,255,255
6,6,0.205,0.262,10.387,0,0.446,10.387,0,0.184,0.185,255,255
7,7,0.205,0.315,16.551,0,0.498,16.603,0,0.191,0.186,255,255
8,8,0.417,0.682,20.984,0,0.367,20.774,0,0.378,0.390,255,255
9,8,0.247,0.393,20.538,0,0.367,20.774,0,0.238,0.247,255,255
10,8,0.063,0.315,20.748,0,0.367,20.774,0,0.059,0.056,255,255
11,9,0.026,0.341,0.839,0,0.367,0.839,0,0.026,0.026,255,255
12,10,0.168,0.525,21.744,0,0.551,21.587,0,0.160,0.163,255,255
13,10,0.153,0.682,21.587,0,0.551,21.587,0,0.131,0.147,255,255
14,10,0.074,0.498,21.534,0,0.551,21.587,0,0.074,0.074,255,255
15,11,0.343,0.577,15.370,0,0.866,15.292,0,0.299,0.310,255,255
16,12,0.849,0.603,9.023,0,1.128,9.548,0,0.742,0.785,255,255
17,13,0.026,0.630,23.869,0,0.656,23.869,0,0.026,0.026,255,255
18,14,0.522,0.682,4.616,0,1.023,4.328,0,0.447,0.477,255,255
19,14,0.491,1.233,4.695,0,1.023,4.328,0,0.423,0.435,255,255
20,14,0.343,1.154,4.039,0,1.023,4.328,0,0.317,0.315,255,255
21,15,0.721,0.761,9.889,0,1.416,9.941,0,0.658,0.676,255,255
22,16,0.638,1.311,13.062,0,1.259,12.511,0,0.553,0.581,255,255
23,16,0.358,1.574,12.564,0,1.259,12.511,0,0.319,0.338,255,255
24,16,0.306,0.787,12.538,0,1.023,12.407,0,0.270,0.280,255,255
25,16,0.280,1.023,12.407,0,1.259,12.511,0,0.258,0.194,255,255
26,16,0.138,0.944,12.302,0,1.023,12.407,0,0.131,0.120,255,255
27,17,0.052,0.866,15.948,0,0.918,15.948,0,0.052,0.052,255,255
28,18,0.190,0.918,2.413,0,1.075,2.492,0,0.176,0.166,255,255
29,19,0.242,0.970,13.298,0,1.128,13.430,0,0.205,0.224,255,255
30,21,0.127,1.049,18.807,0,1.128,18.728,0,0.111,0.126,255,255
31,22,0.734,2.072,20.643,0,1.600,20.197,0,0.649,0.698,255,255
32,22,0.469,1.128,19.856,0,1.521,20.039,0,0.434,0.432,255,255
33,22,0.432,1.364,20.721,0,1.521,20.354,0,0.400,0.401,255,255
34,22,0.432,1.731,20.669,0,1.521,20.354,0,0.378,0.403,255,255
35,22,0.374,1.495,19.698,0,1.521,20.039,0,0.342,0.363,255,255
36,22,0.212,1.521,20.039,0,1.600,20.197,0,0.176,0.135,255,255
37,22,0.190,1.521,20.354,0,1.600,20.197,0,0.176,0.123,255,255
38,23,0.697,1.154,11.148,0,1.443,10.675,0,0.553,0.638,255,255
39,24,0.090,1.154,16.734,0,1.180,16.813,0,0.083,0.083,255,255
40,25,0.422,1.233,26.020,0,1.600,26.151,0,0.390,0.390,255,255
41,26,0.306,1.390,1.495,0,1.285,1.233,0,0.283,0.286,255,255
42,26,0.153,1.364,1.128,0,1.285,1.233,0,0.131,0.139,255,255
43,26,0.026,1.259,1.233,0,1.285,1.233,0,0.026,0.026,255,255
44,27,0.116,1.416,2.807,0,1.443,2.911,0,0.108,0.110,255,255
45,28,0.190,1.521,18.518,0,1.600,18.361,0,0.176,0.178,255,255
46,29,1.271,2.361,9.548,0,3.357,10.098,0,1.139,1.164,255,255
47,29,0.981,2.439,8.708,0,2.361,9.548,0,0.843,0.905,255,255
48,29,0.695,1.574,10.334,0,2.177,10.151,0,0.631,0.650,255,255
49,29,0.511,2.098,10.020,0,2.230,9.600,0,0.440,0.424,255,255
50,29,0.284,3.410,10.439,0,3.410,10.177,0,0.262,0.269,255,255
51,29,0.238,3.541,9.967,0,3.357,10.098,0,0.226,0.238,255,255
52,29,0.212,3.567,10.308,0,3.410,10.177,0,0.205,0.191,255,255
53,29,0.164,2.308,10.230,0,2.177,10.151,0,0.153,0.150,255,255
54,29,0.164,2.098,10.020,0,2.177,10.151,0,0.153,0.094,255,255
55,29,0.153,2.098,9.548,0,2.230,9.600,0,0.141,0.138,255,255
56,29,0.153,2.230,9.600,0,2.361,9.548,0,0.141,0.037,255,255
57,29,0.100,3.357,10.098,0,3.410,10.177,0,0.095,0.026,255,255
58,29,0.090,2.020,9.993,0,2.098,10.020,0,0.083,0.083,255,255
59,30,0.063,1.652,14.479,0,1.626,14.531,0,0.059,0.063,255,255
60,30,0.052,1.574,14.531,0,1.626,14.531,0,0.052,0.052,255,255
61,30,0.026,1.626,14.531,0,1.626,14.531,0,0.000,0.000,0,0
62,31,0.511,1.574,23.711,0,1.993,23.895,0,0.458,0.461,255,255
63,32,0.100,1.652,5.036,0,1.731,5.089,0,0.095,0.087,255,255
64,33,0.100,1.652,25.390,0,1.731,25.338,0,0.095,0.098,255,255
65,34,0.738,1.889,23.344,0,2.230,22.951,0,0.521,0.677,255,255
66,35,0.638,2.230,0.892,0,2.413,0.341,0,0.581,0.559,255,255
67,35,0.326,2.151,1.285,0,2.125,0.970,0,0.316,0.326,255,255
68,35,0.295,2.151,0.262,0,2.413,0.341,0,0.274,0.270,255,255
69,35,0.264,1.915,1.102,0,2.125,0.970,0,0.247,0.267,255,255
70,35,0.264,2.151,0.682,0,2.230,0.892,0,0.224,0.240,255,255
71,35,0.168,2.387,0.866,0,2.230,0.892,0,0.160,0.162,255,255
72,35,0.142,2.544,0.367,0,2.413,0.341,0,0.134,0.136,255,255
73,35,0.138,2.125,0.970,0,2.230,0.892,0,0.131,0.037,255,255
74,36,0.116,1.915,25.311,0,2.020,25.285,0,0.108,0.106,255,255
75,38,0.301,1.993,11.357,0,2.203,11.174,0,0.279,0.293,255,255
76,38,0.205,2.203,10.990,0,2.203,11.174,0,0.184,0.190,255,255
77,38,0.063,2.256,11.200,0,2.203,11.174,0,0.059,0.063,255,255
78,39,0.437,2.098,15.397,0,2.046,15.003,0,0.397,0.429,255,255
79,39,0.365,2.308,14.846,0,2.046,15.003,0,0.306,0.363,255,255
80,39,0.063,1.993,14.977,0,2.046,15.003,0,0.059,0.056,255,255
81,40,0.485,2.020,3.908,0,2.177,3.489,0,0.448,0.478,255,255
82,40,0.485,2.177,3.489,0,2.544,3.279,0,0.423,0.406,255,255
83,40,0.349,2.544,3.279,0,2.807,3.148,0,0.293,0.248,255,255
84,40,0.233,2.728,3.410,0,2.544,3.279,0,0.226,0.212,255,255
85,40,0.179,2.020,3.489,0,2.177,3.489,0,0.157,0.175,255,255
86,40,0.116,2.911,3.174,0,2.807,3.148,0,0.108,0.116,255,255
87,40,0.090,2.780,3.069,0,2.807,3.148,0,0.083,0.083,255,255
88,40,0.026,2.544,3.252,0,2.544,3.279,0,0.026,0.026,255,255
89,41,0.369,2.046,18.859,0,2.361,18.885,0,0.316,0.356,255,255
90,42,0.079,2.098,13.272,0,2.098,13.351,0,0.079,0.079,255,255
91,43,0.343,2.177,12.852,0,2.466,12.721,0,0.317,0.308,255,255
92,44,0.327,2.203,21.534,0,2.466,21.692,0,0.306,0.305,255,255
93,46,0.090,2.334,20.879,0,2.361,20.957,0,0.083,0.094,255,255
94,47,0.116,2.387,18.439,0,2.492,18.413,0,0.108,0.106,255,255
95,48,0.052,2.413,5.325,0,2.466,5.325,0,0.052,0.052,255,255
96,49,0.052,2.466,1.495,0,2.518,1.495,0,0.052,0.052,255,255
97,50,0.138,2.492,22.741,0,2.570,22.636,0,0.131,0.138,255,255
98,50,0.100,2.649,22.689,0,2.570,22.636,0,0.095,0.093,255,255
99,50,0.063,2.597,22.584,0,2.570,22.636,0,0.059,0.066,255,255
100,51,0.179,2.597,4.643,0,2.754,4.590,0,0.166,0.173,255,255
101,52,0.247,2.649,25.443,0,2.885,25.469,0,0.238,0.238,255,255
102,53,0.249,2.702,18.282,0,2.885,18.439,0,0.242,0.245,255,255
103,54,0.221,3.016,7.711,0,2.990,7.502,0,0.211,0.221,255,255
104,54,0.153,2.859,7.449,0,2.990,7.502,0,0.141,0.145,255,255
105,54,0.138,3.148,7.370,0,3.069,7.475,0,0.131,0.135,255,255
106,54,0.090,3.148,7.502,0,3.069,7.475,0,0.083,0.082,255,255
107,54,0.090,2.990,7.502,0,3.069,7.475,0,0.083,0.026,255,255
108,55,0.369,2.859,21.692,0,2.990,21.377,0,0.341,0.334,255,255
109,55,0.332,3.279,21.377,0,2.990,21.377,0,0.289,0.323,255,255
110,55,0.321,2.964,21.089,0,2.990,21.377,0,0.290,0.311,255,255
111,56,0.290,2.938,18.833,0,3.121,19.016,0,0.260,0.271,255,255
112,57,0.026,2.964,24.472,0,2.990,24.472,0,0.026,0.026,255,255
113,58,0.411,2.964,24.551,0,3.121,24.708,0,0.223,0.363,255,255
114,59,0.280,2.990,1.180,0,3.200,1.102,0,0.224,0.247,255,255
115,59,0.175,3.305,1.233,0,3.200,1.102,0,0.168,0.157,255,255
116,59,0.168,3.226,0.944,0,3.200,1.102,0,0.160,0.158,255,255
117,60,0.127,2.990,3.593,0,3.095,3.593,0,0.105,0.119,255,255
118,61,1.095,4.275,17.364,0,3.279,17.548,0,1.013,1.010,255,255
119,61,0.668,3.121,16.944,0,3.279,17.548,0,0.623,0.539,255,255
120,61,0.496,3.200,16.525,0,3.121,16.944,0,0.427,0.456,255,255
121,61,0.402,3.069,17.862,0,3.279,17.548,0,0.378,0.372,255,255
122,61,0.116,3.016,16.918,0,3.121,16.944,0,0.108,0.110,255,255
123,62,1.052,3.043,15.213,0,3.489,14.479,0,0.859,0.973,255,255
124,62,0.729,4.170,14.531,0,3.646,14.479,0,0.527,0.677,255,255
125,62,0.365,3.200,14.295,0,3.489,14.479,0,0.342,0.308,255,255
126,62,0.164,3.751,14.584,0,3.646,14.479,0,0.148,0.146,255,255
127,62,0.157,3.489,14.479,0,3.646,14.479,0,0.157,0.131,255,255
128,63,0.734,3.069,19.279,0,3.646,19.620,0,0.670,0.679,255,255
129,63,0.205,3.698,19.803,0,3.646,19.620,0,0.191,0.193,255,255
130,63,0.131,3.777,19.620,0,3.646,19.620,0,0.131,0.131,255,255
131,64,0.063,3.174,7.711,0,3.200,7.659,0,0.059,0.056,255,255
132,65,0.238,3.200,5.141,0,3.384,5.010,0,0.226,0.230,255,255
133,66,0.212,3.226,24.157,0,3.384,24.236,0,0.176,0.193,255,255
134,67,0.142,3.384,21.167,0,3.357,21.036,0,0.134,0.142,255,255
135,67,0.127,3.462,20.984,0,3.357,21.036,0,0.117,0.124,255,255
136,67,0.116,3.252,21.010,0,3.357,21.036,0,0.108,0.110,255,255
137,68,0.406,3.357,2.570,0,3.672,2.754,0,0.364,0.372,255,255
138,69,0.026,3.489,25.390,0,3.515,25.390,0,0.026,0.026,255,255
139,70,0.668,3.751,7.423,0,3.856,6.820,0,0.612,0.598,255,255
140,70,0.618,4.354,6.689,0,3.856,6.820,0,0.515,0.573,255,255
141,70,0.533,4.170,7.659,0,3.751,7.423,0,0.482,0.481,255,255
142,70,0.179,3.593,7.475,0,3.751,7.423,0,0.166,0.162,255,255
143,70,0.105,3.751,6.820,0,3.856,6.820,0,0.105,0.105,255,255
144,71,0.227,3.725,8.551,0,3.830,8.367,0,0.211,0.222,255,255
145,72,0.264,3.751,22.505,0,3.882,22.715,0,0.247,0.270,255,255
146,73,0.153,3.777,24.341,0,3.882,24.262,0,0.131,0.130,255,255
147,74,0.789,3.803,4.380,0,3.882,3.646,0,0.739,0.747,255,255
148,74,0.295,4.144,3.620,0,3.882,3.646,0,0.264,0.293,255,255
149,74,0.242,3.961,3.436,0,3.882,3.646,0,0.224,0.236,255,255
150,75,0.522,3.803,5.430,0,4.013,5.010,0,0.469,0.512,255,255
151,75,0.253,4.223,5.010,0,4.013,5.010,0,0.210,0.235,255,255
152,75,0.227,3.908,4.826,0,4.013,5.010,0,0.211,0.208,255,255
153,76,0.264,3.803,10.780,0,4.013,10.859,0,0.224,0.238,255,255
154,77,0.943,3.882,15.921,0,4.433,16.184,0,0.610,0.865,255,255
155,78,0.074,3.908,7.869,0,3.961,7.921,0,0.074,0.074,255,255
156,79,0.074,3.934,15.711,0,3.987,15.659,0,0.074,0.074,255,255
157,80,0.105,4.013,2.387,0,4.118,2.387,0,0.105,0.105,255,255
158,81,0.074,4.092,19.567,0,4.144,19.515,0,0.074,0.074,255,255
159,82,0.400,4.118,12.197,0,4.485,12.170,0,0.368,0.374,255,255
160,83,0.402,4.144,10.387,0,4.380,10.098,0,0.373,0.374,255,255
161,84,0.026,4.144,12.485,0,4.170,12.485,0,0.026,0.026,255,255
162,85,0.443,4.485,3.121,0,4.774,3.384,0,0.390,0.346,255,255
163,85,0.391,4.275,2.833,0,4.485,3.121,0,0.357,0.349,255,255
164,85,0.375,5.010,3.646,0,4.774,3.384,0,0.353,0.355,255,255
165,85,0.354,4.931,3.095,0,4.774,3.384,0,0.329,0.325,255,255
166,85,0.301,4.721,2.964,0,4.485,3.121,0,0.284,0.274,255,255
167,87,0.063,4.328,20.564,0,4.380,20.590,0,0.059,0.056,255,255
168,88,0.253,4.380,1.285,0,4.590,1.180,0,0.235,0.268,255,255
169,89,0.290,4.380,9.521,0,4.590,9.679,0,0.262,0.267,255,255
170,90,0.105,4.407,22.505,0,4.407,22.610,0,0.105,0.105,255,255
171,91,0.052,4.433,16.682,0,4.485,16.682,0,0.052,0.052,255,255
172,92,0.026,4.433,23.318,0,4.459,23.318,0,0.026,0.026,255,255
173,93,0.432,4.459,21.482,0,4.800,21.666,0,0.387,0.398,255,255
174,94,0.253,4.826,26.151,0,4.721,25.941,0,0.235,0.232,255,255
175,94,0.242,4.511,25.862,0,4.721,25.941,0,0.224,0.228,255,255
176,94,0.127,4.826,25.889,0,4.721,25.941,0,0.117,0.113,255,255
177,95,0.026,4.511,26.439,0,4.538,26.439,0,0.026,0.026,255,255
178,96,0.242,4.590,8.603,0,4.800,8.682,0,0.224,0.239,255,255
179,97,0.116,4.590,9.889,0,4.669,9.941,0,0.095,0.104,255,255
180,98,0.100,4.616,10.203,0,4.669,10.282,0,0.095,0.087,255,255
181,99,0.037,4.643,15.134,0,4.669,15.161,0,0.037,0.037,255,255
182,100,0.264,4.695,19.856,0,4.905,19.725,0,0.247,0.233,255,255
183,101,0.365,4.774,6.243,0,5.062,6.374,0,0.317,0.338,255,255
184,102,1.326,4.826,2.256,0,4.931,1.128,0,1.133,1.234,255,255
185,103,0.253,4.852,0.551,0,4.957,0.761,0,0.235,0.240,255,255
186,104,0.673,4.905,4.616,0,4.905,5.246,0,0.630,0.645,255,255
187,105,0.153,4.905,20.721,0,4.957,20.590,0,0.141,0.156,255,255
188,106,0.391,5.167,23.475,0,5.220,23.187,0,0.293,0.351,255,255
189,107,0.559,5.193,2.885,0,5.666,2.728,0,0.498,0.514,255,255
190,107,0.295,5.639,2.466,0,5.666,2.728,0,0.264,0.277,255,255
191,107,0.179,5.770,2.833,0,5.666,2.728,0,0.148,0.165,255,255
192,108,0.111,5.246,1.180,0,5.325,1.259,0,0.111,0.111,255,255
193,109,0.153,5.351,22.243,0,5.220,22.295,0,0.141,0.144,255,255
194,109,0.127,5.272,22.400,0,5.220,22.295,0,0.117,0.135,255,255
195,109,0.026,5.220,22.295,0,5.220,22.295,0,0.000,0.000,0,0
196,110,0.354,5.298,19.698,0,5.456,19.987,0,0.329,0.322,255,255
197,111,0.026,5.377,20.957,0,5.403,20.957,0,0.026,0.026,255,255
198,112,0.063,5.403,15.764,0,5.456,15.790,0,0.059,0.066,255,255
199,113,0.201,5.430,15.528,0,5.587,15.423,0,0.189,0.195,255,255
200,114,0.037,5.430,25.626,0,5.456,25.600,0,0.037,0.037,255,255
201,115,0.511,6.269,16.682,0,5.980,16.420,0,0.390,0.487,255,255
202,115,0.507,5.980,16.420,0,6.216,16.026,0,0.459,0.362,255,255
203,115,0.452,5.561,16.341,0,5.980,16.420,0,0.427,0.375,255,255
204,115,0.347,5.482,16.026,0,5.561,16.341,0,0.324,0.324,255,255
205,115,0.247,5.534,16.577,0,5.561,16.341,0,0.238,0.184,255,255
206,115,0.194,5.718,16.603,0,5.534,16.577,0,0.185,0.184,255,255
207,115,0.100,5.456,16.630,0,5.534,16.577,0,0.095,0.098,255,255
208,115,0.063,6.190,15.974,0,6.216,16.026,0,0.059,0.056,255,255
209,115,0.052,6.269,16.026,0,6.216,16.026,0,0.052,0.026,255,255
210,116,0.452,5.534,7.843,0,5.954,7.921,0,0.427,0.432,255,255
211,117,0.026,5.613,15.764,0,5.639,15.764,0,0.026,0.026,255,255
212,118,0.153,5.692,22.767,0,5.744,22.636,0,0.141,0.163,255,255
213,119,0.063,5.718,2.256,0,5.744,2.203,0,0.059,0.056,255,255
214,120,0.369,5.718,3.856,0,5.849,3.593,0,0.293,0.336,255,255
215,122,0.026,5.718,21.430,0,5.718,21.456,0,0.026,0.026,255,255
216,123,0.037,5.718,26.282,0,5.744,26.308,0,0.037,0.037,255,255
217,124,0.026,5.823,0.315,0,5.849,0.315,0,0.026,0.026,255,255
218,125,0.459,6.216,25.233,0,6.164,25.626,0,0.397,0.449,255,255
219,125,0.358,5.875,25.705,0,6.164,25.626,0,0.299,0.295,255,255
220,125,0.138,6.243,25.731,0,6.164,25.626,0,0.131,0.124,255,255
221,125,0.090,5.902,25.626,0,5.875,25.705,0,0.083,0.066,255,255
222,125,0.037,5.849,25.731,0,5.875,25.705,0,0.037,0.037,255,255
223,126,0.232,5.875,25.023,0,6.085,24.970,0,0.216,0.227,255,255
224,127,0.216,5.902,1.075,0,6.085,1.049,0,0.185,0.189,255,255
225,128,0.223,5.954,7.370,0,6.111,7.213,0,0.223,0.223,255,255
226,129,0.374,5.980,5.325,0,6.321,5.351,0,0.342,0.352,255,255
227,129,0.142,6.452,5.325,0,6.321,5.351,0,0.134,0.147,255,255
228,129,0.063,6.348,5.403,0,6.321,5.351,0,0.059,0.063,255,255
229,130,0.295,5.980,6.452,0,6.243,6.374,0,0.274,0.279,255,255
230,131,0.063,6.190,4.485,0,6.216,4.433,0,0.059,0.066,255,255
231,132,0.417,6.216,19.646,0,6.400,19.305,0,0.387,0.426,255,255
232,134,0.074,6.269,23.764,0,6.321,23.711,0,0.074,0.074,255,255
233,135,0.380,6.374,0.839,0,6.689,0.997,0,0.352,0.311,255,255
234,135,0.327,6.689,0.997,0,6.898,0.787,0,0.297,0.287,255,255
235,135,0.295,6.610,1.259,0,6.689,0.997,0,0.274,0.289,255,255
236,135,0.074,6.400,0.813,0,6.374,0.839,0,0.037,0.000,0,0
237,135,0.063,6.951,0.761,0,6.898,0.787,0,0.059,0.063,255,255
238,135,0.037,6.348,0.866,0,6.374,0.839,0,0.037,0.037,255,255
239,135,0.026,6.898,0.787,0,6.898,0.787,0,0.000,0.000,0,0
240,136,0.179,6.348,2.702,0,6.505,2.649,0,0.166,0.165,255,255
241,137,0.074,6.374,17.416,0,6.426,17.469,0,0.074,0.074,255,255
242,138,0.280,6.400,7.239,0,6.505,7.423,0,0.211,0.253,255,255
243,139,0.179,6.452,22.898,0,6.610,22.846,0,0.166,0.167,255,255
244,140,0.349,6.479,3.305,0,6.741,3.515,0,0.336,0.335,255,255
245,141,0.138,6.557,18.203,0,6.636,18.308,0,0.131,0.144,255,255
246,142,0.666,7.423,20.590,0,7.056,21.036,0,0.578,0.607,255,255
247,142,0.553,7.187,21.534,0,7.056,21.036,0,0.515,0.526,255,255
248,142,0.468,6.610,20.984,0,7.056,21.036,0,0.449,0.452,255,255
249,143,0.922,7.633,6.531,0,6.925,6.846,0,0.775,0.882,255,255
250,143,0.679,7.580,6.846,0,6.977,6.925,0,0.608,0.636,255,255
251,143,0.564,7.213,7.344,0,6.977,6.925,0,0.482,0.519,255,255
252,143,0.247,6.689,6.872,0,6.925,6.846,0,0.238,0.242,255,255
253,143,0.100,6.925,6.846,0,6.977,6.925,0,0.095,0.037,255,255
254,144,0.179,6.715,1.652,0,6.715,1.810,0,0.157,0.163,255,255
255,145,1.103,8.236,18.807,0,7.502,19.436,0,0.967,1.049,255,255
256,145,0.603,6.715,19.095,0,7.134,19.305,0,0.469,0.569,255,255
257,145,0.568,7.502,19.961,0,7.502,19.436,0,0.525,0.557,255,255
258,145,0.422,7.134,19.305,0,7.502,19.436,0,0.390,0.368,255,255
259,145,0.301,6.898,19.462,0,7.134,19.305,0,0.284,0.236,255,255
260,146,0.179,6.925,15.030,0,7.056,14.951,0,0.153,0.155,255,255
261,147,0.459,6.925,16.052,0,7.266,15.843,0,0.400,0.411,255,255
262,148,0.232,6.925,23.187,0,7.134,23.187,0,0.210,0.210,255,255
263,149,0.111,7.134,16.708,0,7.056,16.630,0,0.111,0.111,255,255
264,149,0.105,6.951,16.630,0,7.056,16.630,0,0.105,0.105,255,255
265,149,0.100,7.108,16.551,0,7.056,16.630,0,0.095,0.104,255,255
266,150,0.443,6.977,25.285,0,7.318,25.443,0,0.376,0.409,255,255
267,151,0.026,7.056,6.059,0,7.082,6.059,0,0.026,0.026,255,255
268,152,0.138,7.056,17.862,0,7.161,17.941,0,0.131,0.144,255,255
269,153,0.432,7.108,10.072,0,7.266,9.757,0,0.352,0.405,255,255
270,153,0.432,7.370,9.443,0,7.266,9.757,0,0.332,0.389,255,255
271,153,0.184,7.082,9.757,0,7.266,9.757,0,0.184,0.184,255,255
272,154,0.131,7.370,4.459,0,7.239,4.459,0,0.131,0.131,255,255
273,154,0.100,7.187,4.380,0,7.239,4.459,0,0.095,0.098,255,255
274,154,0.090,7.266,4.538,0,7.239,4.459,0,0.083,0.090,255,255
275,155,1.002,7.187,7.711,0,7.869,7.790,0,0.686,0.924,255,255
276,155,0.535,8.393,7.816,0,7.869,7.790,0,0.525,0.535,255,255
277,155,0.052,7.869,7.738,0,7.869,7.790,0,0.052,0.052,255,255
278,156,0.601,7.187,10.938,0,7.580,11.148,0,0.446,0.546,255,255
279,157,0.052,7.187,18.203,0,7.239,18.203,0,0.052,0.052,255,255
280,158,0.201,7.344,2.387,0,7.449,2.544,0,0.189,0.177,255,255
281,159,0.653,7.502,26.466,0,7.554,25.967,0,0.501,0.581,255,255
282,159,0.284,7.685,25.548,0,7.633,25.810,0,0.267,0.270,255,255
283,159,0.242,7.344,25.889,0,7.554,25.967,0,0.224,0.219,255,255
284,159,0.190,7.554,25.967,0,7.633,25.810,0,0.176,0.158,255,255
285,159,0.127,7.738,25.810,0,7.633,25.810,0,0.105,0.120,255,255
286,161,0.849,8.420,3.252,0,8.000,3.882,0,0.757,0.825,255,255
287,161,0.714,8.525,4.302,0,8.000,3.882,0,0.672,0.671,255,255
288,161,0.622,7.475,4.118,0,8.000,3.882,0,0.575,0.590,255,255
289,162,0.374,7.711,1.495,0,7.685,1.154,0,0.342,0.355,255,255
290,162,0.332,7.974,1.102,0,7.685,1.154,0,0.293,0.313,255,255
291,162,0.090,7.659,1.075,0,7.685,1.154,0,0.083,0.083,255,255
292,163,0.592,8.341,24.079,0,7.974,23.685,0,0.538,0.553,255,255
293,163,0.295,8.052,23.423,0,7.974,23.685,0,0.274,0.280,255,255
294,163,0.253,7.764,23.790,0,7.974,23.685,0,0.235,0.227,255,255
295,164,0.343,8.341,10.256,0,8.052,10.125,0,0.317,0.331,255,255
296,164,0.269,7.843,10.125,0,8.052,10.125,0,0.210,0.244,255,255
297,164,0.148,7.948,10.020,0,8.052,10.125,0,0.148,0.148,255,255
298,165,0.026,7.869,2.203,0,7.869,2.230,0,0.026,0.026,255,255
299,166,0.658,7.869,12.800,0,8.210,12.564,0,0.415,0.611,255,255
300,166,0.280,8.157,12.328,0,8.210,12.564,0,0.242,0.288,255,255
301,166,0.090,8.262,12.616,0,8.210,12.564,0,0.074,0.082,255,255
302,167,0.063,7.869,18.282,0,7.921,18.256,0,0.059,0.066,255,255
303,168,0.797,8.052,20.695,0,8.682,20.328,0,0.729,0.694,255,255
304,168,0.618,9.180,20.092,0,8.682,20.328,0,0.551,0.590,255,255
305,168,0.528,8.341,20.039,0,8.682,20.328,0,0.447,0.491,255,255
306,168,0.216,7.869,20.774,0,8.052,20.695,0,0.200,0.230,255,255
307,168,0.179,8.105,20.852,0,8.052,20.695,0,0.166,0.174,255,255
308,169,0.644,7.869,21.875,0,8.289,22.216,0,0.541,0.612,255,255
309,170,0.052,7.948,4.380,0,8.000,4.380,0,0.052,0.052,255,255
310,171,0.116,8.000,13.561,0,8.026,13.666,0,0.108,0.107,255,255
311,172,1.123,8.420,6.033,0,8.315,5.220,0,0.820,1.046,255,255
312,172,0.544,8.026,5.613,0,8.315,5.220,0,0.488,0.505,255,255
313,172,0.164,8.393,5.089,0,8.315,5.220,0,0.153,0.160,255,255
314,173,0.275,8.026,14.216,0,8.210,14.033,0,0.260,0.261,255,255
315,173,0.142,8.341,14.059,0,8.210,14.033,0,0.134,0.110,255,255
316,173,0.063,8.184,13.980,0,8.210,14.033,0,0.059,0.026,255,255
317,174,0.063,8.079,0.367,0,8.105,0.420,0,0.059,0.056,255,255
318,175,0.369,8.131,15.790,0,8.315,15.528,0,0.320,0.333,255,255
319,176,0.037,8.157,22.715,0,8.184,22.741,0,0.037,0.037,255,255
