 ,Skeleton ID,Branch length,V1 x,V1 y,V1 z,V2 x,V2 y,V2 z,Euclidean distance,running average length,average intensity (inner 3rd),average intensity
1,1,0.111,0.079,15.843,0,0.157,15.921,0,0.111,0.111,255,255
2,2,0.052,0.105,2.597,0,0.157,2.597,0,0.052,0.052,255,255
3,3,0.502,0.184,5.377,0,0.498,5.036,0,0.464,0.483,255,255
4,4,0.417,0.262,22.872,0,0.446,23.213,0,0.387,0.383,255,255
5,5,0.100,0.446,11.541,0,0.525,11.593,0,0.095,0.087,255,255
6,6,0.111,0.498,20.748,0,0.577,20.669,0,0.111,0.111,255,255
7,7,0.290,0.498,26.466,0,0.734,26.334,0,0.270,0.266,255,255
8,8,0.511,0.813,10.282,0,0.918,10.728,0,0.458,0.480,255,255
9,8,0.253,0.551,10.597,0,0.761,10.702,0,0.235,0.224,255,255
10,8,0.175,0.630,10.807,0,0.761,10.702,0,0.168,0.131,255,255
11,8,0.168,0.761,10.702,0,0.918,10.728,0,0.160,0.132,255,255
12,8,0.100,0.997,10.780,0,0.918,10.728,0,0.095,0.093,255,255
13,9,0.063,0.577,2.649,0,0.630,2.675,0,0.059,0.066,255,255
14,10,0.168,0.603,4.616,0,0.761,4.643,0,0.160,0.158,255,255
15,11,0.275,0.656,21.875,0,0.813,21.666,0,0.262,0.270,255,255
16,12,0.751,0.682,25.075,0,1.207,25.548,0,0.706,0.714,255,255
17,13,0.332,0.761,3.226,0,1.049,3.279,0,0.293,0.331,255,255
18,14,0.026,0.761,13.220,0,0.787,13.220,0,0.026,0.026,255,255
19,15,0.734,0.787,11.593,0,1.390,11.279,0,0.680,0.700,255,255
20,16,0.168,0.866,9.993,0,1.023,9.967,0,0.160,0.161,255,255
21,18,0.332,0.918,24.289,0,1.180,24.367,0,0.274,0.297,255,255
22,19,0.052,0.944,6.085,0,0.997,6.085,0,0.052,0.052,255,255
23,20,0.037,1.075,0.420,0,1.102,0.446,0,0.037,0.037,255,255
24,21,0.185,1.102,22.610,0,1.233,22.479,0,0.185,0.185,255,255
25,22,0.317,1.180,14.557,0,1.259,14.820,0,0.274,0.297,255,255
26,23,0.148,1.233,21.849,0,1.338,21.954,0,0.148,0.148,255,255
27,24,0.232,1.311,20.511,0,1.495,20.590,0,0.200,0.212,255,255
28,25,0.585,1.469,26.151,0,1.967,26.151,0,0.498,0.466,255,255
29,25,0.443,1.757,25.862,0,1.967,26.151,0,0.357,0.415,255,255
30,25,0.400,2.334,26.230,0,1.967,26.151,0,0.376,0.378,255,255
31,25,0.212,1.600,26.334,0,1.443,26.203,0,0.205,0.153,255,255
32,25,0.153,1.311,26.256,0,1.443,26.203,0,0.141,0.149,255,255
33,25,0.100,1.521,26.072,0,1.469,26.151,0,0.095,0.104,255,255
34,25,0.063,1.443,26.203,0,1.469,26.151,0,0.059,0.037,255,255
35,26,0.845,1.390,0.656,0,2.046,1.075,0,0.779,0.788,255,255
36,27,0.105,1.390,14.531,0,1.495,14.531,0,0.105,0.105,255,255
37,28,0.275,1.705,3.305,0,1.548,3.515,0,0.262,0.269,255,255
38,28,0.148,1.652,3.620,0,1.548,3.515,0,0.148,0.148,255,255
39,28,0.052,1.495,3.515,0,1.548,3.515,0,0.052,0.052,255,255
40,29,0.179,1.548,5.770,0,1.626,5.902,0,0.153,0.161,255,255
41,30,0.232,1.574,9.705,0,1.731,9.810,0,0.189,0.208,255,255
42,32,0.238,1.784,4.118,0,1.967,4.249,0,0.226,0.214,255,255
43,33,0.142,1.810,8.262,0,1.836,8.393,0,0.134,0.148,255,255
44,34,0.201,1.810,24.603,0,1.967,24.708,0,0.189,0.184,255,255
45,35,0.585,2.623,4.407,0,2.413,4.905,0,0.541,0.547,255,255
46,35,0.570,2.728,5.246,0,2.413,4.905,0,0.464,0.555,255,255
47,35,0.568,1.889,4.852,0,2.413,4.905,0,0.527,0.545,255,255
48,36,0.216,1.915,6.925,0,2.098,7.003,0,0.200,0.200,255,255
49,37,0.885,1.941,9.049,0,2.439,9.469,0,0.652,0.822,255,255
50,38,0.090,1.993,22.872,0,2.072,22.898,0,0.083,0.080,255,255
51,39,0.026,2.046,19.908,0,2.072,19.908,0,0.026,0.026,255,255
52,40,0.052,2.072,7.449,0,2.072,7.502,0,0.052,0.052,255,255
53,41,0.459,2.098,17.652,0,2.439,17.443,0,0.400,0.438,255,255
54,42,0.707,2.125,24.289,0,2.702,24.236,0,0.579,0.687,255,255
55,43,0.127,2.151,12.354,0,2.203,12.249,0,0.117,0.113,255,255
56,44,0.670,2.177,7.633,0,2.649,7.318,0,0.567,0.620,255,255
57,44,0.422,2.728,6.846,0,2.623,7.187,0,0.357,0.388,255,255
58,44,0.306,2.911,7.266,0,2.649,7.318,0,0.267,0.301,255,255
59,44,0.301,2.466,6.951,0,2.623,7.187,0,0.284,0.270,255,255
60,44,0.142,2.623,7.187,0,2.649,7.318,0,0.134,0.079,255,255
61,45,0.037,2.177,9.023,0,2.203,8.997,0,0.037,0.037,255,255
62,46,0.153,2.203,23.239,0,2.256,23.108,0,0.141,0.134,255,255
63,48,0.063,2.256,8.813,0,2.308,8.839,0,0.059,0.066,255,255
64,49,0.474,2.334,16.787,0,2.518,16.472,0,0.364,0.432,255,255
65,50,0.026,2.361,20.092,0,2.387,20.092,0,0.026,0.026,255,255
66,51,0.116,2.387,17.180,0,2.439,17.259,0,0.095,0.104,255,255
67,52,1.540,2.466,21.587,0,3.620,22.190,0,1.302,1.431,255,255
68,53,0.037,2.466,25.285,0,2.492,25.311,0,0.037,0.037,255,255
69,54,0.343,2.518,22.715,0,2.780,22.872,0,0.306,0.313,255,255
70,55,0.443,2.833,20.695,0,3.200,20.879,0,0.411,0.439,255,255
71,56,0.090,2.885,26.544,0,2.938,26.597,0,0.074,0.080,255,255
72,57,0.301,2.911,16.813,0,3.069,17.049,0,0.284,0.291,255,255
73,58,0.090,2.990,17.810,0,3.069,17.784,0,0.083,0.083,255,255
74,59,0.275,3.043,9.810,0,3.252,9.967,0,0.262,0.248,255,255
75,60,0.269,3.148,19.541,0,3.148,19.751,0,0.210,0.232,255,255
76,61,0.828,4.275,7.895,0,3.830,8.446,0,0.709,0.721,255,255
77,61,0.786,3.226,8.184,0,3.830,8.446,0,0.658,0.752,255,255
78,61,0.555,3.384,8.446,0,3.830,8.446,0,0.446,0.539,255,255
79,61,0.452,3.908,8.866,0,3.830,8.446,0,0.427,0.441,255,255
80,62,0.142,3.226,12.695,0,3.357,12.721,0,0.134,0.132,255,255
81,63,0.295,3.252,4.118,0,3.384,3.908,0,0.247,0.264,255,255
82,64,0.205,3.252,24.105,0,3.410,24.131,0,0.160,0.187,255,255
83,65,0.273,3.751,16.079,0,3.489,16.105,0,0.264,0.236,255,255
84,65,0.232,3.436,16.315,0,3.489,16.105,0,0.216,0.213,255,255
85,65,0.201,3.305,15.816,0,3.357,15.974,0,0.166,0.206,255,255
86,65,0.185,3.357,15.974,0,3.489,16.105,0,0.185,0.074,255,255
87,65,0.079,3.279,15.974,0,3.357,15.974,0,0.079,0.079,255,255
88,66,0.454,3.305,25.731,0,3.567,26.046,0,0.410,0.423,255,255
89,67,0.247,3.331,1.600,0,3.567,1.574,0,0.238,0.239,255,255
90,68,0.100,3.357,26.256,0,3.410,26.177,0,0.095,0.098,255,255
91,69,0.533,3.384,23.213,0,3.803,23.030,0,0.458,0.497,255,255
92,69,0.441,4.223,23.082,0,3.803,23.030,0,0.423,0.426,255,255
93,69,0.404,3.830,23.423,0,3.803,23.030,0,0.394,0.400,255,255
94,70,0.100,3.462,15.423,0,3.541,15.475,0,0.095,0.106,255,255
95,71,0.074,3.489,20.931,0,3.541,20.879,0,0.074,0.074,255,255
96,72,0.037,3.646,7.344,0,3.672,7.370,0,0.037,0.037,255,255
97,73,0.153,3.672,15.659,0,3.725,15.790,0,0.141,0.152,255,255
98,74,0.264,3.751,16.708,0,3.882,16.918,0,0.247,0.250,255,255
99,75,0.238,3.777,4.433,0,3.908,4.249,0,0.226,0.232,255,255
100,75,0.090,3.882,4.170,0,3.908,4.249,0,0.083,0.083,255,255
101,75,0.090,3.987,4.275,0,3.908,4.249,0,0.083,0.090,255,255
102,76,0.153,3.777,15.475,0,3.856,15.370,0,0.131,0.141,255,255
103,77,0.934,3.777,26.780,0,4.459,26.282,0,0.845,0.886,255,255
104,77,0.605,4.957,26.203,0,4.459,26.282,0,0.505,0.575,255,255
105,77,0.063,4.433,26.230,0,4.459,26.282,0,0.059,0.056,255,255
106,78,0.090,3.830,19.803,0,3.882,19.751,0,0.074,0.080,255,255
107,79,0.216,3.908,11.016,0,3.987,10.885,0,0.153,0.171,255,255
108,80,0.365,3.934,1.495,0,4.223,1.679,0,0.342,0.372,255,255
109,81,0.111,3.934,9.180,0,4.013,9.259,0,0.111,0.111,255,255
110,82,0.127,3.934,19.620,0,4.039,19.620,0,0.105,0.120,255,255
111,83,0.236,3.961,17.915,0,3.961,18.151,0,0.236,0.236,255,255
112,84,0.616,4.066,0.446,0,4.616,0.498,0,0.553,0.570,255,255
113,85,0.321,4.066,17.285,0,4.354,17.207,0,0.299,0.320,255,255
114,86,0.701,4.066,21.823,0,4.275,21.246,0,0.614,0.666,255,255
115,87,0.190,4.302,17.784,0,4.433,17.889,0,0.168,0.175,255,255
116,88,0.212,4.380,11.462,0,4.538,11.331,0,0.205,0.191,255,255
117,89,0.127,4.407,14.059,0,4.485,13.980,0,0.111,0.115,255,255
118,90,0.232,4.433,0.813,0,4.643,0.813,0,0.210,0.214,255,255
119,91,0.463,4.485,19.043,0,4.695,19.252,0,0.297,0.418,255,255
120,92,0.074,4.538,14.138,0,4.590,14.190,0,0.074,0.074,255,255
121,93,0.249,4.564,18.230,0,4.748,18.072,0,0.242,0.245,255,255
122,94,0.517,4.616,23.843,0,4.800,24.262,0,0.458,0.489,255,255
123,94,0.301,4.984,24.472,0,4.800,24.262,0,0.279,0.274,255,255
124,94,0.221,4.590,24.289,0,4.800,24.262,0,0.211,0.210,255,255
125,95,0.190,4.643,3.095,0,4.669,3.252,0,0.160,0.182,255,255
126,96,0.365,4.643,12.092,0,4.879,12.328,0,0.334,0.338,255,255
127,97,0.411,4.695,2.649,0,4.800,2.282,0,0.382,0.393,255,255
128,98,0.052,4.695,9.416,0,4.695,9.469,0,0.052,0.052,255,255
129,99,0.249,4.721,14.557,0,4.905,14.400,0,0.242,0.253,255,255
130,100,0.131,4.748,16.603,0,4.748,16.734,0,0.131,0.131,255,255
131,101,0.190,4.774,6.452,0,4.931,6.531,0,0.176,0.165,255,255
132,102,0.327,4.957,3.489,0,4.984,3.725,0,0.238,0.284,255,255
133,103,0.496,5.010,4.249,0,5.246,3.882,0,0.437,0.450,255,255
134,104,0.249,5.325,14.820,0,5.141,14.977,0,0.242,0.198,255,255
135,104,0.179,5.167,15.266,0,5.115,15.108,0,0.166,0.170,255,255
136,104,0.142,5.115,15.108,0,5.141,14.977,0,0.134,0.052,255,255
137,104,0.138,5.036,14.898,0,5.141,14.977,0,0.131,0.120,255,255
138,104,0.026,5.089,15.108,0,5.115,15.108,0,0.026,0.026,255,255
139,105,0.690,5.141,22.636,0,5.351,22.033,0,0.639,0.650,255,255
140,106,0.131,5.193,10.623,0,5.325,10.623,0,0.131,0.131,255,255
141,107,0.321,5.220,8.839,0,5.298,9.075,0,0.249,0.297,255,255
142,108,0.306,5.246,5.508,0,5.508,5.403,0,0.283,0.304,255,255
143,109,0.063,5.298,19.410,0,5.351,19.436,0,0.059,0.066,255,255
144,110,0.037,5.403,11.908,0,5.430,11.934,0,0.037,0.037,255,255
145,111,0.164,5.430,13.089,0,5.561,13.115,0,0.134,0.141,255,255
146,112,0.127,5.508,17.075,0,5.613,17.023,0,0.117,0.135,255,255
147,113,0.596,5.718,20.957,0,6.085,21.325,0,0.519,0.497,255,255
148,113,0.511,6.138,21.036,0,5.718,20.957,0,0.427,0.469,255,255
149,113,0.284,6.190,21.115,0,6.085,21.325,0,0.235,0.260,255,255
150,113,0.164,5.587,20.879,0,5.718,20.957,0,0.153,0.161,255,255
151,113,0.074,6.085,21.377,0,6.085,21.325,0,0.052,0.074,255,255
152,114,0.548,5.613,6.584,0,6.033,6.767,0,0.458,0.517,255,255
153,115,0.321,5.639,0.577,0,5.692,0.315,0,0.267,0.298,255,255
154,116,0.596,6.138,11.384,0,5.666,11.489,0,0.484,0.548,255,255
155,116,0.491,5.770,11.121,0,5.666,11.489,0,0.382,0.436,255,255
156,116,0.116,5.639,11.593,0,5.666,11.489,0,0.108,0.109,255,255
157,117,0.026,5.639,17.259,0,5.666,17.259,0,0.026,0.026,255,255
158,118,0.358,5.666,25.574,0,5.954,25.652,0,0.299,0.333,255,255
159,119,0.275,5.849,13.482,0,6.059,13.377,0,0.235,0.264,255,255
160,120,0.386,6.216,15.161,0,6.452,15.449,0,0.373,0.293,255,255
161,120,0.249,5.902,14.951,0,6.059,15.134,0,0.242,0.239,255,255
162,120,0.221,6.479,15.659,0,6.452,15.449,0,0.211,0.214,255,255
163,120,0.168,6.059,15.134,0,6.216,15.161,0,0.160,0.137,255,255
164,120,0.153,6.584,15.502,0,6.452,15.449,0,0.141,0.139,255,255
165,120,0.138,5.954,15.213,0,6.059,15.134,0,0.131,0.098,255,255
166,120,0.127,6.295,15.082,0,6.216,15.161,0,0.111,0.124,255,255
167,121,0.090,6.033,7.370,0,6.111,7.344,0,0.083,0.083,255,255
168,122,0.854,6.138,17.311,0,6.531,17.889,0,0.698,0.717,255,255
169,122,0.422,6.898,18.020,0,6.531,17.889,0,0.390,0.393,255,255
170,122,0.242,6.138,17.311,0,6.216,17.102,0,0.224,0.134,255,255
171,122,0.164,6.452,18.020,0,6.531,17.889,0,0.153,0.143,255,255
172,122,0.127,6.033,17.364,0,6.138,17.311,0,0.117,0.113,255,255
173,122,0.090,6.295,17.075,0,6.216,17.102,0,0.083,0.052,255,255
174,122,0.063,6.190,17.049,0,6.216,17.102,0,0.059,0.056,255,255
175,123,0.312,6.348,26.046,0,6.164,26.282,0,0.299,0.298,255,255
176,123,0.227,6.295,26.439,0,6.164,26.282,0,0.205,0.210,255,255
177,123,0.090,6.085,26.308,0,6.164,26.282,0,0.083,0.080,255,255
178,124,0.190,6.111,20.564,0,6.216,20.695,0,0.168,0.161,255,255
179,125,0.400,6.164,8.761,0,6.505,8.813,0,0.345,0.374,255,255
180,126,0.179,6.269,3.279,0,6.400,3.200,0,0.153,0.169,255,255
181,127,0.116,6.295,10.754,0,6.400,10.780,0,0.108,0.107,255,255
182,128,0.485,6.295,23.738,0,6.452,24.157,0,0.448,0.454,255,255
183,129,0.227,6.321,12.748,0,6.426,12.931,0,0.211,0.208,255,255
184,130,0.153,6.400,3.803,0,6.505,3.882,0,0.131,0.141,255,255
185,131,0.052,6.400,7.370,0,6.452,7.370,0,0.052,0.052,255,255
186,132,0.528,6.715,14.400,0,6.479,13.980,0,0.482,0.481,255,255
187,132,0.374,6.400,13.639,0,6.479,13.980,0,0.350,0.352,255,255
188,132,0.358,6.793,13.980,0,6.479,13.980,0,0.315,0.336,255,255
189,132,0.063,6.452,14.033,0,6.479,13.980,0,0.059,0.063,255,255
190,133,0.179,6.426,11.803,0,6.557,11.882,0,0.153,0.158,255,255
191,134,0.848,6.505,16.839,0,7.108,16.577,0,0.658,0.729,255,255
192,134,0.579,7.108,16.577,0,7.187,17.049,0,0.479,0.492,255,255
193,134,0.559,7.318,16.105,0,7.108,16.577,0,0.517,0.529,255,255
194,134,0.489,7.554,17.285,0,7.187,17.049,0,0.437,0.449,255,255
195,134,0.406,6.977,17.338,0,7.187,17.049,0,0.357,0.379,255,255
196,134,0.299,6.898,17.023,0,7.187,17.049,0,0.290,0.265,255,255
197,134,0.221,6.689,17.049,0,6.898,17.023,0,0.211,0.210,255,255
198,134,0.100,6.846,16.944,0,6.898,17.023,0,0.095,0.056,255,255
199,134,0.090,6.452,16.892,0,6.505,16.839,0,0.074,0.082,255,255
200,134,0.090,6.584,16.866,0,6.505,16.839,0,0.083,0.082,255,255
201,137,0.116,6.610,7.711,0,6.636,7.607,0,0.108,0.106,255,255
202,138,0.090,6.662,9.652,0,6.741,9.679,0,0.083,0.080,255,255
203,139,0.380,6.662,23.502,0,6.951,23.318,0,0.342,0.367,255,255
204,140,0.052,6.820,26.780,0,6.872,26.780,0,0.052,0.052,255,255
205,141,0.354,6.977,19.095,0,7.239,19.279,0,0.320,0.326,255,255
206,142,0.037,6.977,25.207,0,7.003,25.233,0,0.037,0.037,255,255
207,143,0.179,7.003,2.361,0,7.003,2.518,0,0.157,0.163,255,255
208,144,0.482,7.502,1.652,0,7.423,2.020,0,0.376,0.465,255,255
209,144,0.448,7.030,1.889,0,7.423,2.020,0,0.415,0.414,255,255
210,144,0.168,7.580,2.046,0,7.423,2.020,0,0.160,0.160,255,255
211,144,0.100,7.423,2.098,0,7.423,2.020,0,0.079,0.104,255,255
212,145,0.063,7.108,1.364,0,7.161,1.390,0,0.059,0.066,255,255
213,146,0.079,7.161,10.754,0,7.239,10.754,0,0.079,0.079,255,255
214,147,0.612,7.161,22.138,0,7.370,21.613,0,0.565,0.597,255,255
215,148,0.037,7.266,20.354,0,7.292,20.328,0,0.037,0.037,255,255
216,149,0.201,7.292,13.062,0,7.397,12.905,0,0.189,0.208,255,255
217,150,0.127,7.292,24.944,0,7.397,24.892,0,0.117,0.135,255,255
218,151,0.179,7.344,15.030,0,7.397,15.187,0,0.166,0.169,255,255
219,152,0.111,7.397,0.866,0,7.475,0.944,0,0.111,0.111,255,255
220,153,0.037,7.423,10.754,0,7.449,10.780,0,0.037,0.037,255,255
221,154,0.111,7.475,12.275,0,7.554,12.354,0,0.111,0.111,255,255
222,155,0.194,7.633,10.964,0,7.816,10.990,0,0.185,0.105,255,255
223,155,0.179,7.816,10.833,0,7.816,10.990,0,0.157,0.159,255,255
224,155,0.175,7.921,11.121,0,7.816,10.990,0,0.168,0.120,255,255
225,155,0.127,7.580,11.069,0,7.633,10.964,0,0.117,0.127,255,255
226,155,0.063,7.607,10.911,0,7.633,10.964,0,0.059,0.056,255,255
227,156,0.607,7.685,5.692,0,8.052,6.085,0,0.538,0.595,255,255
228,157,0.037,7.869,9.416,0,7.895,9.390,0,0.037,0.037,255,255
229,158,0.806,7.895,22.505,0,8.603,22.689,0,0.732,0.751,255,255
230,159,0.052,7.921,15.921,0,7.974,15.921,0,0.052,0.052,255,255
231,160,0.380,7.948,10.597,0,8.210,10.544,0,0.267,0.343,255,255
232,161,0.749,7.948,24.472,0,8.551,24.420,0,0.606,0.729,255,255
233,161,0.306,8.603,24.210,0,8.551,24.420,0,0.216,0.266,255,255
234,161,0.216,8.630,24.603,0,8.551,24.420,0,0.200,0.204,255,255
235,162,0.063,7.974,12.511,0,8.026,12.485,0,0.059,0.066,255,255
236,164,0.037,8.026,16.472,0,8.052,16.498,0,0.037,0.037,255,255
237,165,0.142,8.105,9.259,0,8.236,9.233,0,0.134,0.137,255,255
238,166,0.395,8.157,13.193,0,8.446,13.325,0,0.317,0.356,255,255
239,166,0.347,8.761,13.403,0,8.446,13.325,0,0.324,0.334,255,255
240,166,0.063,8.420,13.377,0,8.446,13.325,0,0.059,0.063,255,255
241,167,1.046,9.049,14.059,0,8.525,14.872,0,0.968,0.995,255,255
242,167,0.413,8.839,15.108,0,8.525,14.872,0,0.393,0.382,255,255
243,167,0.352,8.184,14.846,0,8.525,14.872,0,0.342,0.342,255,255
244,168,0.238,8.236,11.541,0,8.367,11.725,0,0.226,0.214,255,255
245,169,0.179,8.262,18.990,0,8.420,18.938,0,0.166,0.166,255,255
246,170,0.343,8.262,25.495,0,8.551,25.521,0,0.290,0.309,255,255
247,171,0.306,8.315,9.390,0,8.420,9.128,0,0.283,0.304,255,255
248,172,0.533,8.341,20.302,0,8.761,20.538,0,0.482,0.501,255,255
249,173,0.216,8.446,4.748,0,8.525,4.931,0,0.200,0.197,255,255
250,173,0.100,8.603,4.984,0,8.525,4.931,0,0.095,0.093,255,255
251,173,0.063,8.498,4.984,0,8.525,4.931,0,0.059,0.063,255,255
252,175,0.105,8.446,12.616,0,8.551,12.616,0,0.105,0.105,255,255
253,176,0.395,9.102,2.544,0,8.761,2.623,0,0.350,0.361,255,255
254,176,0.247,8.525,2.597,0,8.761,2.623,0,0.238,0.238,255,255
255,176,0.238,8.892,2.807,0,8.761,2.623,0,0.226,0.245,255,255
256,177,0.258,8.551,1.207,0,8.787,1.259,0,0.242,0.261,255,255
257,178,0.332,8.551,26.413,0,8.839,26.518,0,0.307,0.303,255,255
258,179,0.142,8.577,5.928,0,8.603,6.059,0,0.134,0.137,255,255
259,180,0.522,8.577,9.679,0,8.787,10.098,0,0.469,0.471,255,255
260,180,0.374,8.970,9.862,0,8.787,10.098,0,0.299,0.351,255,255
261,180,0.249,8.630,10.282,0,8.787,10.098,0,0.242,0.249,255,255
262,181,0.358,8.708,17.233,0,9.023,17.233,0,0.315,0.325,255,255
263,182,0.026,8.761,23.502,0,8.787,23.502,0,0.026,0.026,255,255
264,183,0.063,8.866,12.433,0,8.918,12.459,0,0.059,0.056,255,255
265,184,0.585,9.207,12.459,0,9.180,12.931,0,0.473,0.521,255,255
266,184,0.332,8.892,12.826,0,9.180,12.931,0,0.307,0.309,255,255
267,184,0.216,9.259,13.115,0,9.180,12.931,0,0.200,0.202,255,255
268,185,0.389,8.918,4.826,0,9.285,4.879,0,0.371,0.385,255,255
269,186,0.306,8.918,20.879,0,9.180,20.774,0,0.283,0.294,255,255
270,187,0.100,8.918,25.364,0,8.970,25.443,0,0.095,0.087,255,255
271,188,0.391,8.970,15.318,0,9.180,15.607,0,0.357,0.363,255,255
272,189,0.201,9.128,18.807,0,8.997,18.938,0,0.185,0.191,255,255
273,189,0.153,9.049,19.069,0,8.997,18.938,0,0.141,0.147,255,255
274,189,0.026,8.970,18.938,0,8.997,18.938,0,0.026,0.026,255,255
275,190,0.358,9.102,14.348,0,9.416,14.452,0,0.332,0.333,255,255
276,191,0.721,9.784,19.043,0,9.548,19.567,0,0.575,0.679,255,255
277,191,0.426,9.495,19.672,0,9.574,20.066,0,0.401,0.344,255,255
278,191,0.374,9.154,19.751,0,9.495,19.672,0,0.350,0.361,255,255
279,191,0.264,9.757,19.698,0,9.548,19.567,0,0.247,0.241,255,255
280,191,0.190,9.705,20.170,0,9.574,20.066,0,0.168,0.171,255,255
281,191,0.164,9.338,20.039,0,9.469,20.118,0,0.153,0.143,255,255
282,191,0.142,9.469,20.118,0,9.574,20.066,0,0.117,0.106,255,255
283,191,0.127,9.416,20.223,0,9.469,20.118,0,0.117,0.083,255,255
284,191,0.127,9.495,19.672,0,9.548,19.567,0,0.117,0.063,255,255
285,192,0.026,9.207,22.793,0,9.207,22.820,0,0.026,0.026,255,255
286,193,0.184,9.338,26.151,0,9.338,25.967,0,0.184,0.184,255,255
287,193,0.175,9.233,25.836,0,9.338,25.967,0,0.168,0.153,255,255
288,193,0.063,9.390,25.993,0,9.338,25.967,0,0.059,0.063,255,255
289,194,0.232,9.285,8.551,0,9.495,8.603,0,0.216,0.212,255,255
290,195,0.432,9.338,4.118,0,9.495,4.485,0,0.400,0.407,255,255
291,196,0.127,9.364,5.193,0,9.390,5.115,0,0.083,0.096,255,255
292,197,0.052,9.390,3.856,0,9.443,3.856,0,0.052,0.052,255,255
293,198,0.428,9.390,12.275,0,9.600,11.934,0,0.400,0.431,255,255
294,199,0.242,9.469,17.784,0,9.679,17.810,0,0.211,0.230,255,255
295,200,0.105,9.469,24.289,0,9.574,24.289,0,0.105,0.105,255,255
296,201,0.063,9.495,13.770,0,9.521,13.823,0,0.059,0.056,255,255
297,202,0.273,10.020,21.272,0,9.757,21.246,0,0.264,0.264,255,255
298,202,0.168,9.600,21.220,0,9.757,21.246,0,0.160,0.164,255,255
299,202,0.153,9.757,21.115,0,9.757,21.246,0,0.131,0.147,255,255
300,203,0.190,9.652,13.036,0,9.810,13.010,0,0.160,0.188,255,255
301,204,0.037,9.652,16.052,0,9.679,16.026,0,0.037,0.037,255,255
302,205,0.153,9.679,12.748,0,9.784,12.669,0,0.131,0.136,255,255
303,206,0.090,9.679,20.957,0,9.705,21.036,0,0.083,0.083,255,255
304,207,0.253,9.731,22.820,0,9.915,22.689,0,0.226,0.229,255,255
305,208,0.238,9.967,18.072,0,9.784,18.151,0,0.200,0.194,255,255
306,208,0.100,9.836,18.230,0,9.784,18.151,0,0.095,0.093,255,255
307,208,0.026,9.757,18.151,0,9.784,18.151,0,0.026,0.026,255,255
308,209,0.760,10.518,4.485,0,10.439,5.089,0,0.608,0.701,255,255
309,209,0.706,9.810,4.905,0,10.439,5.089,0,0.656,0.677,255,255
310,209,0.448,10.413,5.482,0,10.439,5.089,0,0.394,0.423,255,255
311,210,0.052,9.862,9.600,0,9.915,9.600,0,0.052,0.052,255,255
312,211,0.164,10.046,25.259,0,9.967,25.390,0,0.153,0.164,255,255
313,211,0.116,9.862,25.364,0,9.967,25.390,0,0.108,0.110,255,255
314,211,0.100,10.020,25.469,0,9.967,25.390,0,0.095,0.093,255,255
315,212,0.221,9.993,26.282,0,10.203,26.308,0,0.211,0.212,255,255
316,212,0.127,10.256,26.203,0,10.203,26.308,0,0.117,0.131,255,255
